SpectraSuite Datei
++++++++++++++++++++++++++++++++++++
Datum: Wed Feb 24 09:43:24 CET 2016
Benutzer: Praktikum-Pc1
Dark-Spektrum vorhanden: Ja
Referenz-Spektrum vorhanden: Nein
Zahl der probierten Teilspektren: 1
Spektrometer: USB4F04607
Integrationszeit (usec): 100000 (USB4F04607)
Spektren Durchschnitt berechnet: 25 (USB4F04607)
Boxcar Glättung: 0 (USB4F04607)
Dunkelstromkorrektur: Nein (USB4F04607)
Puls/Lampe aktiviert: Nein (USB4F04607)
Correct for Detector Non-linearity: Nein (USB4F04607)
Streulichtkorrektur: Nein (USB4F04607)
Anzahl Pixel in verarbeitetem Spektrum: 3648
>>>>>Begin Processed Spectral Data<<<<<
177,66	-8,11
177,88	-8,11
178,10	-8,11
178,32	-3,85
178,53	-28,75
178,75	13,60
178,97	-10,16
179,19	5,32
179,40	2,95
179,62	5,16
179,84	7,05
180,05	-18,76
180,27	-3,69
180,49	-10,49
180,71	-6,23
180,92	-14,75
181,14	-5,73
181,36	10,65
181,58	32,93
181,79	5,08
182,01	13,43
182,23	25,23
182,44	5,32
182,66	22,77
182,88	9,75
183,10	23,59
183,31	14,83
183,53	15,97
183,75	14,34
183,96	12,70
184,18	2,46
184,40	22,53
184,62	-0,41
184,83	9,58
185,05	10,98
185,27	12,86
185,48	28,92
185,70	17,04
185,92	5,57
186,14	23,76
186,35	2,13
186,57	7,62
186,79	2,29
187,00	23,51
187,22	24,58
187,44	14,17
187,66	39,73
187,87	9,75
188,09	22,45
188,31	23,51
188,52	30,15
188,74	34,41
188,96	13,84
189,17	20,56
189,39	27,69
189,61	13,93
189,82	12,53
190,04	27,85
190,26	18,43
190,48	21,46
190,69	3,60
190,91	14,34
191,13	21,30
191,34	32,28
191,56	-0,16
191,78	9,91
191,99	-11,63
192,21	36,29
192,43	20,40
192,64	21,46
192,86	8,52
193,08	21,46
193,29	30,31
193,51	21,22
193,73	-1,06
193,94	9,99
194,16	14,42
194,38	3,19
194,60	8,60
194,81	3,77
195,03	27,20
195,25	13,68
195,46	23,26
195,68	34,41
195,90	16,06
196,11	8,11
196,33	38,58
196,55	28,51
196,76	11,14
196,98	7,37
197,20	11,96
197,41	2,05
197,63	14,58
197,85	16,06
198,06	26,71
198,28	17,20
198,50	43,09
198,71	36,70
198,93	16,38
199,14	22,20
199,36	27,93
199,58	14,50
199,79	6,31
200,01	-1,72
200,23	14,17
200,44	15,32
200,66	26,05
200,88	5,82
201,09	31,37
201,31	1,56
201,53	6,64
201,74	14,01
201,96	25,39
202,18	1,15
202,39	16,22
202,61	27,52
202,83	4,83
203,04	16,71
203,26	1,23
203,47	24,90
203,69	22,45
203,91	16,55
204,12	27,61
204,34	24,25
204,56	11,55
204,77	6,14
204,99	28,92
205,21	1,97
205,42	-4,10
205,64	23,92
205,85	5,24
206,07	22,36
206,29	15,65
206,50	9,50
206,72	21,79
206,94	5,57
207,15	23,02
207,37	21,22
207,58	20,40
207,80	15,65
208,02	22,53
208,23	8,93
208,45	20,56
208,67	21,22
208,88	25,15
209,10	4,67
209,31	4,59
209,53	19,41
209,75	11,88
209,96	30,15
210,18	22,45
210,40	11,96
210,61	20,97
210,83	29,33
211,04	22,53
211,26	15,73
211,48	16,22
211,69	15,24
211,91	15,97
212,12	6,06
212,34	20,23
212,56	20,97
212,77	47,68
212,99	10,98
213,20	32,77
213,42	5,65
213,64	23,67
213,85	34,65
214,07	25,48
214,28	-0,49
214,50	24,66
214,72	20,81
214,93	28,10
215,15	32,19
215,36	10,40
215,58	3,11
215,80	30,23
216,01	19,01
216,23	21,79
216,44	13,93
216,66	18,51
216,88	14,50
217,09	27,93
217,31	34,08
217,52	26,21
217,74	4,34
217,95	23,76
218,17	6,72
218,39	-4,75
218,60	15,89
218,82	27,69
219,03	19,91
219,25	-0,08
219,47	38,91
219,68	31,78
219,90	16,55
220,11	23,18
220,33	38,42
220,54	8,68
220,76	20,07
220,98	32,52
221,19	22,20
221,41	41,37
221,62	19,50
221,84	15,89
222,05	24,74
222,27	38,67
222,48	25,07
222,70	3,44
222,92	28,92
223,13	25,39
223,35	47,51
223,56	25,64
223,78	3,36
223,99	15,65
224,21	14,99
224,43	-6,14
224,64	20,40
224,86	22,45
225,07	10,49
225,29	19,17
225,50	23,35
225,72	20,07
225,93	33,75
226,15	23,59
226,37	35,55
226,58	50,05
226,80	18,68
227,01	11,63
227,23	28,59
227,44	22,45
227,66	8,27
227,87	35,23
228,09	17,28
228,30	10,16
228,52	18,43
228,74	27,93
228,95	23,18
229,17	10,16
229,38	17,78
229,60	5,90
229,81	16,06
230,03	-4,75
230,24	18,92
230,46	23,43
230,67	10,65
230,89	12,53
231,10	16,63
231,32	26,79
231,53	32,60
231,75	29,33
231,97	34,82
232,18	21,95
232,40	23,51
232,61	21,95
232,83	26,71
233,04	6,88
233,26	17,94
233,47	25,72
233,69	24,82
233,90	18,35
234,12	23,10
234,33	17,28
234,55	13,60
234,76	22,69
234,98	26,46
235,19	16,63
235,41	15,15
235,62	28,43
235,84	12,45
236,05	24,41
236,27	22,12
236,48	30,64
236,70	20,15
236,91	13,27
237,13	7,62
237,34	34,57
237,56	35,88
237,77	17,78
237,99	34,82
238,20	25,56
238,42	31,46
238,63	15,97
238,85	22,36
239,06	2,70
239,28	34,00
239,49	29,16
239,71	31,37
239,92	38,17
240,14	31,62
240,35	17,12
240,57	18,51
240,78	28,26
241,00	34,00
241,21	30,72
241,43	14,01
241,64	22,61
241,86	37,60
242,07	16,63
242,29	18,60
242,50	43,34
242,72	6,96
242,93	29,24
243,15	30,06
243,36	36,37
243,58	22,61
243,79	4,42
244,01	14,01
244,22	16,38
244,44	23,67
244,65	7,37
244,87	7,05
245,08	20,07
245,29	17,86
245,51	19,58
245,72	25,39
245,94	22,04
246,15	7,78
246,37	38,67
246,58	1,80
246,80	32,11
247,01	9,67
247,23	27,36
247,44	21,46
247,66	21,87
247,87	19,17
248,09	24,17
248,30	35,06
248,51	23,51
248,73	31,62
248,94	28,59
249,16	16,14
249,37	30,06
249,59	36,78
249,80	15,73
250,02	-3,11
250,23	30,31
250,45	19,58
250,66	20,64
250,87	9,67
251,09	33,91
251,30	19,09
251,52	45,14
251,73	30,72
251,95	26,13
252,16	30,47
252,38	15,32
252,59	38,58
252,80	20,97
253,02	2,05
253,23	24,82
253,45	28,26
253,66	24,08
253,88	37,35
254,09	34,00
254,30	14,17
254,52	2,95
254,73	23,18
254,95	2,13
255,16	28,18
255,38	45,14
255,59	16,47
255,80	17,53
256,02	51,12
256,23	11,30
256,45	32,03
256,66	37,68
256,88	24,58
257,09	28,10
257,30	16,88
257,52	15,48
257,73	22,45
257,95	22,20
258,16	55,21
258,38	10,32
258,59	24,58
258,80	27,03
259,02	31,95
259,23	25,89
259,45	21,95
259,66	42,43
259,87	36,13
260,09	4,83
260,30	9,17
260,52	24,00
260,73	16,14
260,94	32,93
261,16	22,28
261,37	35,88
261,59	29,90
261,80	21,71
262,01	17,94
262,23	43,09
262,44	7,45
262,66	29,90
262,87	26,30
263,08	38,09
263,30	30,72
263,51	35,23
263,73	23,59
263,94	15,89
264,15	20,48
264,37	28,59
264,58	38,09
264,80	36,21
265,01	35,63
265,22	43,50
265,44	10,57
265,65	28,18
265,86	17,61
266,08	43,25
266,29	25,97
266,51	39,32
266,72	19,58
266,93	39,08
267,15	32,85
267,36	16,22
267,58	31,70
267,79	43,74
268,00	16,55
268,22	22,45
268,43	38,99
268,64	20,81
268,86	34,00
269,07	58,24
269,28	36,86
269,50	48,33
269,71	37,19
269,93	39,48
270,14	28,67
270,35	12,29
270,57	31,37
270,78	19,66
270,99	24,00
271,21	36,78
271,42	30,15
271,63	39,16
271,85	22,69
272,06	31,62
272,28	39,65
272,49	14,01
272,70	46,86
272,92	43,09
273,13	40,55
273,34	46,12
273,56	40,30
273,77	34,90
273,98	31,70
274,20	12,70
274,41	22,94
274,62	40,39
274,84	43,66
275,05	41,21
275,26	21,63
275,48	25,89
275,69	11,88
275,90	40,22
276,12	45,14
276,33	29,90
276,54	47,68
276,76	21,54
276,97	46,28
277,18	31,95
277,40	36,29
277,61	39,65
277,82	46,12
278,04	19,41
278,25	21,05
278,46	40,14
278,68	48,99
278,89	35,80
279,10	25,15
279,32	30,56
279,53	34,73
279,74	27,03
279,96	23,76
280,17	50,63
280,38	20,15
280,60	29,08
280,81	44,97
281,02	49,72
281,24	29,65
281,45	41,04
281,66	42,60
281,88	26,62
282,09	27,20
282,30	39,57
282,52	39,32
282,73	52,43
282,94	24,08
283,15	35,39
283,37	58,90
283,58	39,65
283,79	36,78
284,01	54,39
284,22	33,91
284,43	18,27
284,65	45,38
284,86	57,18
285,07	52,67
285,28	37,76
285,50	34,16
285,71	32,36
285,92	23,92
286,14	29,16
286,35	28,02
286,56	25,07
286,77	35,72
286,99	42,27
287,20	72,09
287,41	56,93
287,63	37,68
287,84	47,35
288,05	54,23
288,27	51,12
288,48	42,02
288,69	36,78
288,90	47,35
289,12	52,35
289,33	70,70
289,54	35,47
289,75	37,76
289,97	38,75
290,18	51,36
290,39	31,46
290,61	41,61
290,82	26,79
291,03	54,72
291,24	50,63
291,46	34,65
291,67	47,35
291,88	37,03
292,09	49,07
292,31	38,42
292,52	54,31
292,73	36,13
292,95	43,25
293,16	54,23
293,37	27,69
293,58	50,30
293,80	32,69
294,01	65,04
294,22	45,55
294,43	36,54
294,65	42,52
294,86	48,50
295,07	53,08
295,28	59,55
295,50	42,11
295,71	42,68
295,92	66,27
296,13	47,10
296,35	60,05
296,56	37,35
296,77	48,25
296,98	35,23
297,20	54,39
297,41	51,53
297,62	47,92
297,83	46,69
298,05	35,47
298,26	44,24
298,47	67,91
298,68	51,85
298,89	31,29
299,11	62,91
299,32	46,37
299,53	57,34
299,74	36,21
299,96	41,53
300,17	55,13
300,38	61,93
300,59	47,43
300,81	52,51
301,02	40,06
301,23	52,92
301,44	44,32
301,65	64,14
301,87	37,19
302,08	59,88
302,29	43,25
302,50	66,76
302,72	30,97
302,93	52,59
303,14	69,47
303,35	52,10
303,56	75,69
303,78	55,05
303,99	49,89
304,20	62,83
304,41	45,38
304,62	53,49
304,84	62,50
305,05	63,98
305,26	63,81
305,47	53,49
305,68	60,13
305,90	62,26
306,11	57,59
306,32	59,47
306,53	59,80
306,74	36,37
306,96	62,91
307,17	63,90
307,38	92,40
307,59	59,64
307,80	67,01
308,02	73,24
308,23	49,72
308,44	60,13
308,65	60,05
308,86	51,28
309,08	62,59
309,29	62,42
309,50	71,68
309,71	44,56
309,92	53,41
310,13	55,95
310,35	48,33
310,56	55,54
310,77	56,69
310,98	52,18
311,19	80,53
311,41	70,45
311,62	45,14
311,83	62,09
312,04	82,82
312,25	76,18
312,46	69,30
312,68	53,33
312,89	67,66
313,10	76,35
313,31	40,06
313,52	93,55
313,73	79,79
313,95	66,52
314,16	102,73
314,37	77,74
314,58	45,22
314,79	79,87
315,00	66,35
315,22	81,84
315,43	88,55
315,64	108,62
315,85	81,92
316,06	89,54
316,27	58,74
316,48	92,49
316,70	91,91
316,91	73,15
317,12	103,38
317,33	118,95
317,54	87,65
317,75	86,67
317,97	83,72
318,18	97,57
318,39	110,10
318,60	106,49
318,81	101,83
319,02	129,19
319,23	116,08
319,45	122,14
319,66	125,75
319,87	119,19
320,08	140,24
320,29	147,29
320,50	138,20
320,71	167,61
320,92	125,34
321,14	157,53
321,35	150,16
321,56	136,72
321,77	179,98
321,98	161,87
322,19	169,74
322,40	196,61
322,61	181,70
322,83	176,13
323,04	197,59
323,25	225,69
323,46	205,62
323,67	227,90
323,88	236,09
324,09	231,01
324,30	251,49
324,52	266,56
324,73	259,76
324,94	293,11
325,15	306,29
325,36	303,92
325,57	329,07
325,78	359,54
325,99	357,49
326,20	400,09
326,41	393,46
326,63	414,59
326,84	414,51
327,05	435,48
327,26	426,63
327,47	461,86
327,68	449,41
327,89	489,71
328,10	510,11
328,31	526,00
328,52	593,99
328,74	621,27
328,95	621,52
329,16	689,26
329,37	729,32
329,58	732,19
329,79	736,94
330,00	755,13
330,21	741,94
330,42	761,76
330,63	778,31
330,84	799,77
331,06	852,45
331,27	893,49
331,48	904,38
331,69	949,52
331,90	967,54
332,11	1008,09
332,32	1031,44
332,53	1060,44
332,74	1087,06
332,95	1110,16
333,16	1090,91
333,37	1169,23
333,58	1196,67
333,79	1274,00
334,01	1287,19
334,22	1371,57
334,43	1384,67
334,64	1473,39
334,85	1503,62
335,06	1509,19
335,27	1522,13
335,48	1507,14
335,69	1548,76
335,90	1514,76
336,11	1544,91
336,32	1576,20
336,53	1595,20
336,74	1651,48
336,95	1657,71
337,16	1772,48
337,37	1856,61
337,59	1951,47
337,80	2000,13
338,01	2066,56
338,22	2121,78
338,43	2227,78
338,64	2253,50
338,85	2337,31
339,06	2407,10
339,27	2518,76
339,48	2578,64
339,69	2704,96
339,90	2704,96
340,11	2773,93
340,32	2806,78
340,53	2834,88
340,74	2818,25
340,95	2874,04
341,16	2933,43
341,37	3080,39
341,58	3126,02
341,79	3262,91
342,00	3226,53
342,21	3315,09
342,42	3390,21
342,63	3450,66
342,84	3510,30
343,05	3437,31
343,26	3416,18
343,48	3355,97
343,69	3243,00
343,90	3255,45
344,11	3255,29
344,32	3381,03
344,53	3603,85
344,74	3788,58
344,95	3845,27
345,16	3953,07
345,37	4036,71
345,58	4056,29
345,79	4130,34
346,00	4199,97
346,21	4248,88
346,42	4353,65
346,63	4375,36
346,84	4436,31
347,05	4475,47
347,26	4532,89
347,47	4518,72
347,68	4610,22
347,89	4672,65
348,10	4738,10
348,31	4836,97
348,52	4923,15
348,73	4864,83
348,94	4999,17
349,15	4969,19
349,36	5258,12
349,57	5476,92
349,78	5710,72
349,99	5877,34
350,20	6112,61
350,41	6041,02
350,62	6027,83
350,83	6047,73
351,04	6042,16
351,25	6132,03
351,45	6144,48
351,66	6060,10
351,87	6088,28
352,08	6031,19
352,29	6188,80
352,50	6252,86
352,71	6477,97
352,92	6830,71
353,13	7113,41
353,34	7228,18
353,55	7450,26
353,76	7515,47
353,97	7711,18
354,18	7738,70
354,39	7836,51
354,60	7865,51
354,81	7820,13
355,02	7870,18
355,23	7798,99
355,44	7694,46
355,65	7689,55
355,86	7525,06
356,07	7462,96
356,28	7137,66
356,49	6943,60
356,70	6791,56
356,91	6892,97
357,12	6807,04
357,32	6754,94
357,53	6520,24
357,74	6475,51
357,95	6317,74
358,16	6432,75
358,37	6627,14
358,58	7070,82
358,79	7587,48
359,00	8247,58
359,21	8700,18
359,42	8929,47
359,63	8917,51
359,84	8939,88
360,05	8618,26
360,26	8620,97
360,47	8378,24
360,68	8333,59
360,88	8193,10
361,09	8433,54
361,30	8319,09
361,51	8595,65
361,72	8783,82
361,93	9169,82
362,14	9312,36
362,35	9708,93
362,56	9632,91
362,77	9756,93
362,98	9751,61
363,19	9811,41
363,40	9802,32
363,60	10046,11
363,81	10226,74
364,02	10247,13
364,23	10188,73
364,44	10363,21
364,65	10480,52
364,86	10924,60
365,07	11372,94
365,28	11864,37
365,49	12170,75
365,70	12468,12
365,91	12442,97
366,11	12655,38
366,32	12578,21
366,53	12401,84
366,74	12337,05
366,95	12539,63
367,16	12225,14
367,37	12152,24
367,58	12041,89
367,79	12122,83
368,00	11857,17
368,20	12010,93
368,41	12068,35
368,62	12318,86
368,83	12591,73
369,04	12847,56
369,25	13082,26
369,46	13256,67
369,67	13152,46
369,88	12992,31
370,08	12551,10
370,29	12361,13
370,50	12272,66
370,71	12627,94
370,92	12606,72
371,13	12861,24
371,34	12422,41
371,55	12295,92
371,75	11912,79
371,96	11728,47
372,17	11447,98
372,38	11570,45
372,59	11343,45
372,80	11149,96
373,01	10536,39
373,22	10318,98
373,42	10397,29
373,63	10275,56
373,84	10162,51
374,05	10304,23
374,26	10122,95
374,47	10434,48
374,68	10467,25
374,88	10913,79
375,09	11336,00
375,30	11702,18
375,51	11756,16
375,72	11878,22
375,93	11489,27
376,14	11805,64
376,34	11923,36
376,55	12332,87
376,76	12537,09
376,97	13168,11
377,18	13310,24
377,39	13951,99
377,59	14016,54
377,80	14448,42
378,01	13854,92
378,22	13776,60
378,43	13121,58
378,64	12827,58
378,85	12088,42
379,05	11890,75
379,26	11733,47
379,47	11750,18
379,68	11713,56
379,89	12093,42
380,10	12412,57
380,30	12858,62
380,51	12858,54
380,72	12639,24
380,93	12071,55
381,14	11695,87
381,34	11098,76
381,55	10569,81
381,76	9931,67
381,97	9618,00
382,18	9218,07
382,39	8936,76
382,59	8437,47
382,80	8421,82
383,01	8298,29
383,22	8529,71
383,43	8618,26
383,63	9271,40
383,84	9653,63
384,05	10308,98
384,26	10837,36
384,47	11360,82
384,68	11426,11
384,88	11588,31
385,09	11327,56
385,30	11288,24
385,51	11125,96
385,72	11244,25
385,92	11276,94
386,13	11469,36
386,34	11390,31
386,55	11696,69
386,76	11501,23
386,96	11584,62
387,17	11528,51
387,38	11638,28
387,59	11627,88
387,79	11781,80
388,00	11478,62
388,21	11728,39
388,42	11928,03
388,63	12365,96
388,83	12713,79
389,04	13500,78
389,25	13654,71
389,46	14126,56
389,67	14219,46
389,87	14400,82
390,08	14392,31
390,29	14559,91
390,50	14879,72
390,70	15296,93
390,91	15289,56
391,12	15434,97
391,33	15053,14
391,53	14868,66
391,74	14036,29
391,95	13443,85
392,16	12252,59
392,37	11322,56
392,57	10126,88
392,78	9301,87
392,99	8632,35
393,20	8713,21
393,40	8934,96
393,61	9925,69
393,82	10837,11
394,03	11966,69
394,23	12745,25
394,44	13844,27
394,65	14430,56
394,86	15018,74
395,06	14891,44
395,27	15265,23
395,48	14440,96
395,69	13848,04
395,89	12663,33
396,10	11407,02
396,31	10557,03
396,52	10275,23
396,72	10243,78
396,93	11122,03
397,14	12039,60
397,35	13860,16
397,55	14976,22
397,76	16334,27
397,97	17108,08
398,18	18123,87
398,38	18420,91
398,59	19095,83
398,80	19159,40
399,00	19800,42
399,21	19925,83
399,42	20271,61
399,63	19714,07
399,83	20016,36
400,04	20379,99
400,25	21006,26
400,46	20650,90
400,66	20870,44
400,87	21191,81
401,08	21595,01
401,28	21458,78
401,49	21794,73
401,70	21573,79
401,91	21967,58
402,11	21877,06
402,32	21841,75
402,53	21579,36
402,73	21226,29
402,94	20976,52
403,15	21623,19
403,35	21179,03
403,56	21497,77
403,77	20993,32
403,98	21306,17
404,18	20819,08
404,39	21288,47
404,60	20688,58
404,80	20996,35
405,01	20946,13
405,22	21193,53
405,42	20579,05
405,63	20736,75
405,84	20362,87
406,05	20743,71
406,25	20311,59
406,46	20630,99
406,67	20495,99
406,87	21013,80
407,08	20641,80
407,29	21029,94
407,49	20750,10
407,70	21363,84
407,91	21396,19
408,11	21802,76
408,32	22005,42
408,53	22627,11
408,73	22104,30
408,94	22302,05
409,15	21758,68
409,35	21305,35
409,56	20365,82
409,77	20502,13
409,97	20051,58
410,18	20555,13
410,39	20697,43
410,59	21463,29
410,80	21719,20
411,01	22936,35
411,21	22683,71
411,42	23196,69
411,63	23057,02
411,83	23323,58
412,04	22914,89
412,25	23088,96
412,45	22288,62
412,66	22345,63
412,87	22240,53
413,07	22448,93
413,28	22340,55
413,49	22561,16
413,69	22188,76
413,90	22738,35
414,11	22148,13
414,31	22501,93
414,52	22023,12
414,72	22154,93
414,93	22355,30
415,14	22208,66
415,34	22436,81
415,55	22575,09
415,76	22846,98
415,96	23109,85
416,17	22695,84
416,38	22660,04
416,58	22334,98
416,79	22173,03
416,99	21598,94
417,20	21590,59
417,41	21412,50
417,61	21447,07
417,82	21060,82
418,03	21501,79
418,23	21271,84
418,44	21236,04
418,64	21177,31
418,85	21391,44
419,06	20978,49
419,26	21143,64
419,47	20890,76
419,67	20922,87
419,88	20853,65
420,09	21286,34
420,29	21253,16
420,50	22155,25
420,71	21928,58
420,91	21958,40
421,12	21687,17
421,32	21967,50
421,53	21569,12
421,74	21248,66
421,94	20734,21
422,15	20648,93
422,35	20249,41
422,56	20659,34
422,77	20219,35
422,97	20109,33
423,18	20184,53
423,38	21005,20
423,59	20525,81
423,80	20816,95
424,00	20581,18
424,21	21021,99
424,41	20252,85
424,62	20727,08
424,82	19896,75
425,03	20637,95
425,24	20650,24
425,44	20550,55
425,65	20482,23
425,85	21024,77
426,06	20672,77
426,26	20712,25
426,47	20001,04
426,68	20012,01
426,88	19535,41
427,09	19735,13
427,29	19627,24
427,50	19968,35
427,70	19863,25
427,91	19492,98
428,12	19601,03
428,32	19559,99
428,53	19006,13
428,73	18943,71
428,94	18856,80
429,14	18048,58
429,35	17703,79
429,56	17293,29
429,76	16509,41
429,97	15932,95
430,17	15527,29
430,38	15507,38
430,58	16043,13
430,79	16918,68
430,99	17516,36
431,20	18994,58
431,40	19382,88
431,61	20360,91
431,82	20801,14
432,02	20548,01
432,23	20918,69
432,43	21287,90
432,64	20564,39
432,84	21272,66
433,05	21237,52
433,25	20791,39
433,46	20756,74
433,66	20373,93
433,87	20081,32
434,07	20206,73
434,28	20615,18
434,49	21038,46
434,69	20990,78
434,90	21373,58
435,10	21638,51
435,31	22411,74
435,51	21985,76
435,72	22660,86
435,92	22278,62
436,13	23104,61
436,33	22795,28
436,54	23221,84
436,74	22864,75
436,95	22884,82
437,15	22130,10
437,36	22122,49
437,56	21196,31
437,77	20919,10
437,97	20653,19
438,18	20838,08
438,38	20594,13
438,59	21100,14
438,79	20748,95
439,00	21748,53
439,20	21646,13
439,41	21874,19
439,61	21697,74
439,82	22145,91
440,02	21722,48
440,23	21802,10
440,43	22137,31
440,64	22564,19
440,84	22782,59
441,05	23305,64
441,25	23178,17
441,46	23526,66
441,66	23653,06
441,87	24008,34
442,07	23638,39
442,28	23826,64
442,48	23216,92
442,69	23755,04
442,89	23936,17
443,10	23523,13
443,30	23096,17
443,51	23682,71
443,71	23592,35
443,92	23571,63
444,12	23759,14
444,32	23896,35
444,53	23644,70
444,73	23594,16
444,94	22684,20
445,14	23040,71
445,35	22442,21
445,55	22460,97
445,76	22168,93
445,96	22920,13
446,17	22653,16
446,37	23307,36
446,58	23142,13
446,78	23885,54
446,98	23368,55
447,19	23769,63
447,39	23668,46
447,60	24383,77
447,80	23509,21
448,01	23656,25
448,21	23889,64
448,42	23680,42
448,62	23844,42
448,82	23864,24
449,03	23715,72
449,23	23648,47
449,44	24076,17
449,64	24882,66
449,85	24471,42
450,05	24542,94
450,26	25050,34
450,46	24775,34
450,66	25014,05
450,87	25104,49
451,07	24855,13
451,28	24762,56
451,48	23903,89
451,69	24347,40
451,89	23816,89
452,09	23557,78
452,30	23234,04
452,50	22790,53
452,71	22762,19
452,91	23113,95
453,12	23284,83
453,32	23076,18
453,52	23288,44
453,73	23684,68
453,93	23866,21
454,14	23316,70
454,34	23384,44
454,54	23351,68
454,75	23358,89
454,95	23515,10
455,16	23578,59
455,36	23689,84
455,56	23225,69
455,77	24598,32
455,97	24050,44
456,18	24148,91
456,38	24396,22
456,58	24459,96
456,79	24170,05
456,99	24617,32
457,20	24638,78
457,40	24310,13
457,60	24155,55
457,81	24653,78
458,01	23932,32
458,22	23872,02
458,42	23942,07
458,62	24145,31
458,83	23861,70
459,03	24255,08
459,23	23972,78
459,44	23987,28
459,64	23858,84
459,85	24228,86
460,05	23992,53
460,25	23954,93
460,46	23809,19
460,66	24525,08
460,86	24601,84
461,07	25002,83
461,27	24932,38
461,48	24555,64
461,68	24877,74
461,88	25147,25
462,09	25162,65
462,29	25214,02
462,49	25519,08
462,70	25163,64
462,90	25561,44
463,10	25097,61
463,31	25080,82
463,51	25049,77
463,72	25369,42
463,92	24862,75
464,12	24488,38
464,33	24686,62
464,53	24974,32
464,73	24970,31
464,94	25064,43
465,14	25296,51
465,34	24773,54
465,55	25440,85
465,75	25540,14
465,95	24887,24
466,16	25115,06
466,36	25373,76
466,56	24435,79
466,77	25023,72
466,97	25775,16
467,17	25796,21
467,38	25404,81
467,58	25693,65
467,78	25628,69
467,99	26170,91
468,19	26285,52
468,39	27341,94
468,60	26360,47
468,80	27081,60
469,00	26647,10
469,21	26902,28
469,41	26804,22
469,61	26827,57
469,82	26789,40
470,02	26891,06
470,22	26498,26
470,42	27136,90
470,63	27262,40
470,83	27826,49
471,03	28168,17
471,24	28690,90
471,44	28856,70
471,64	29676,87
471,85	29297,01
472,05	30667,68
472,25	30631,06
472,46	30007,58
472,66	30387,19
472,86	30532,67
473,06	30787,69
473,27	31366,85
473,47	31107,33
473,67	31757,11
473,88	31799,63
474,08	32333,41
474,28	32396,49
474,48	32995,73
474,69	33018,91
474,89	33067,32
475,09	32983,60
475,30	33129,34
475,50	33505,10
475,70	33548,43
475,90	33834,74
476,11	33464,30
476,31	33328,40
476,51	34377,29
476,72	35375,87
476,92	34797,69
477,12	35307,72
477,32	36423,29
477,53	36397,32
477,73	36979,93
477,93	37192,59
478,13	37472,83
478,34	36659,95
478,54	38253,60
478,74	38047,82
478,94	37922,81
479,15	38250,90
479,35	38327,08
479,55	38411,87
479,75	39546,03
479,96	39524,65
480,16	39295,69
480,36	39371,13
480,57	40443,94
480,77	40457,87
480,97	40578,53
481,17	40088,25
481,37	41331,45
481,58	40872,38
481,78	41123,05
481,98	41540,92
482,18	41402,39
482,39	41648,48
482,59	41511,84
482,79	41541,16
482,99	41618,58
483,20	41412,14
483,40	41693,61
483,60	41957,23
483,80	42009,98
484,01	41736,70
484,21	41912,99
484,41	41675,18
484,61	41385,60
484,81	40994,27
485,02	40587,30
485,22	39274,06
485,42	38407,61
485,62	37541,15
485,83	37138,27
486,03	37022,20
486,23	37043,99
486,43	37448,83
486,63	38401,13
486,84	38981,12
487,04	39603,37
487,24	40266,26
487,44	40668,15
487,64	41072,01
487,85	41678,54
488,05	41660,03
488,25	42244,93
488,45	41347,92
488,65	42138,27
488,86	42009,57
489,06	42559,58
489,26	42669,76
489,46	43588,07
489,66	43967,76
489,87	43941,14
490,07	44075,73
490,27	43859,95
490,47	43968,17
490,67	43524,01
490,88	43559,39
491,08	43004,56
491,28	43077,63
491,48	42465,21
491,68	42386,15
491,88	42589,89
492,09	42177,51
492,29	42649,19
492,49	42580,71
492,69	43409,40
492,89	43153,24
493,09	43183,14
493,30	43335,51
493,50	43473,79
493,70	43382,29
493,90	44217,69
494,10	43818,42
494,30	44404,96
494,51	44439,37
494,71	44392,92
494,91	44247,51
495,11	44208,93
495,31	43731,51
495,51	43932,29
495,72	43578,65
495,92	43488,12
496,12	43896,65
496,32	43816,62
496,52	44071,22
496,72	43915,66
496,92	43859,22
497,13	43512,70
497,33	43555,54
497,53	43214,68
497,73	42625,11
497,93	42768,96
498,13	42263,44
498,33	42342,74
498,54	42385,17
498,74	42411,96
498,94	42574,16
499,14	42471,10
499,34	42621,83
499,54	42276,46
499,74	41873,18
499,94	41834,92
500,15	41390,92
500,35	41188,34
500,55	40563,54
500,75	40745,81
500,95	40116,92
501,15	40425,84
501,35	40057,29
501,55	40264,21
501,76	39997,49
501,96	40475,24
502,16	40420,27
502,36	40811,92
502,56	40569,61
502,76	40853,04
502,96	41117,89
503,16	40688,31
503,36	40423,54
503,57	40589,35
503,77	40439,93
503,97	40338,10
504,17	40461,06
504,37	40593,77
504,57	40752,37
504,77	41186,21
504,97	41337,02
505,17	41704,59
505,37	41723,02
505,57	42190,12
505,78	42101,49
505,98	42560,64
506,18	42366,82
506,38	42328,24
506,58	41926,43
506,78	42127,21
506,98	41539,11
507,18	41375,19
507,38	41232,16
507,58	41413,12
507,78	41239,95
507,98	41743,83
508,19	41461,29
508,39	42011,79
508,59	42289,82
508,79	42565,23
508,99	42548,43
509,19	42951,23
509,39	42482,41
509,59	42458,49
509,79	42585,63
509,99	42828,19
510,19	42962,94
510,39	42848,75
510,59	42868,98
510,79	43463,06
510,99	43413,01
511,19	43445,94
511,39	43914,10
511,60	44010,52
511,80	43344,11
512,00	43999,54
512,20	43472,64
512,40	43489,60
512,60	43199,28
512,80	42939,11
513,00	43273,42
513,20	43139,89
513,40	42911,01
513,60	43282,75
513,80	42636,17
514,00	42933,86
514,20	42951,97
514,40	43244,09
514,60	43343,46
514,80	43661,55
515,00	43660,32
515,20	43620,75
515,40	43798,84
515,60	43330,60
515,80	42725,38
516,00	42414,50
516,20	41311,05
516,40	40559,04
516,60	40098,00
516,80	39693,98
517,00	39305,44
517,20	39551,77
517,40	39629,75
517,60	40152,31
517,80	40093,90
518,00	40187,37
518,20	40574,93
518,40	40800,04
518,60	40930,70
518,80	41214,63
519,00	41641,27
519,20	42238,13
519,40	42643,79
519,60	42958,44
519,80	42914,61
520,00	43179,21
520,20	43077,63
520,40	43460,52
520,60	43098,77
520,80	43559,97
521,00	43178,47
521,20	43863,07
521,40	43378,85
521,60	43563,24
521,80	43579,30
522,00	43233,85
522,20	42886,51
522,40	42810,66
522,60	42315,46
522,80	42482,08
523,00	42447,84
523,20	42791,24
523,40	42504,61
523,60	43258,67
523,80	43317,73
524,00	43383,19
524,20	43504,92
524,40	43365,66
524,60	43229,18
524,80	43242,94
525,00	42762,90
525,20	42955,41
525,40	42110,82
525,60	42004,25
525,80	41135,99
526,00	40811,02
526,20	39954,31
526,40	39024,37
526,60	38786,97
526,79	38984,40
526,99	38423,58
527,19	39229,09
527,39	38935,57
527,59	39761,23
527,79	39803,75
527,99	40624,00
528,19	40520,04
528,39	41141,40
528,59	41010,41
528,79	41226,02
528,99	40919,89
529,19	41345,21
529,39	40820,93
529,59	40704,94
529,79	40733,12
529,98	40815,44
530,18	40659,39
530,38	40926,69
530,58	40492,36
530,78	41010,08
530,98	40933,98
531,18	40582,63
531,38	40264,29
531,58	40077,93
531,78	39233,67
531,98	39284,22
532,18	38700,22
532,37	38315,61
532,57	38063,38
532,77	37923,30
532,97	37937,97
533,17	38057,57
533,37	37796,00
533,57	38146,20
533,77	38311,52
533,97	38002,44
534,17	38138,42
534,37	38327,65
534,56	38178,64
534,76	38615,76
534,96	38411,37
535,16	38689,65
535,36	38812,20
535,56	38752,07
535,76	38523,52
535,96	38308,65
536,16	38105,00
536,35	37789,61
536,55	37456,28
536,75	37158,02
536,95	37190,21
537,15	37190,29
537,35	37046,36
537,55	37299,98
537,75	37112,88
537,94	37419,26
538,14	37214,13
538,34	37344,63
538,54	37031,70
538,74	36531,91
538,94	36513,73
539,14	36135,43
539,34	35791,78
539,53	35728,37
539,73	35273,15
539,93	35346,71
540,13	34753,46
540,33	34908,53
540,53	34700,54
540,73	34928,11
540,92	34567,01
541,12	35282,65
541,32	34765,50
541,52	35325,25
541,72	35119,39
541,92	35295,27
542,11	34922,45
542,31	35102,51
542,51	34804,08
542,71	34750,34
542,91	34693,66
543,11	34865,85
543,30	34896,65
543,50	34905,25
543,70	34910,90
543,90	35031,90
544,10	34864,78
544,30	34982,26
544,49	34840,37
544,69	34815,39
544,89	34690,95
545,09	34619,27
545,29	34599,61
545,49	34589,78
545,68	34496,31
545,88	34459,70
546,08	34295,69
546,28	34147,34
546,48	34268,50
546,67	34153,32
546,87	33993,33
547,07	33898,88
547,27	33556,71
547,47	33834,25
547,67	33345,60
547,86	33423,18
548,06	33310,13
548,26	33870,95
548,46	33295,88
548,66	33632,89
548,85	33471,26
549,05	33496,25
549,25	33688,76
549,45	33662,22
549,65	33352,15
549,84	33553,43
550,04	33172,34
550,24	33130,56
550,44	33158,91
550,63	32983,52
550,83	33025,46
551,03	33119,34
551,23	32767,42
551,43	33200,85
551,62	32920,28
551,82	32883,25
552,02	32695,66
552,22	32712,53
552,41	32649,29
552,61	32502,98
552,81	32465,47
553,01	32556,72
553,21	32365,36
553,40	32341,85
553,60	32230,44
553,80	32868,18
554,00	32414,68
554,19	32849,91
554,39	32532,15
554,59	32488,57
554,79	32421,23
554,98	32515,44
555,18	32369,78
555,38	32267,14
555,58	32054,32
555,77	32212,17
555,97	31816,26
556,17	31760,64
556,37	31191,79
556,56	31435,42
556,76	31002,81
556,96	31154,60
557,16	30704,05
557,35	31069,65
557,55	30597,23
557,75	30897,21
557,95	30467,30
558,14	30389,64
558,34	30174,69
558,54	30086,38
558,73	29922,46
558,93	29846,69
559,13	29792,95
559,33	29485,51
559,52	29534,99
559,72	29499,11
559,92	29679,49
560,12	29738,88
560,31	30072,62
560,51	29995,94
560,71	29899,61
560,90	29829,24
561,10	29873,31
561,30	29651,72
561,50	29583,56
561,69	29693,09
561,89	29465,27
562,09	29403,42
562,28	29174,46
562,48	29625,67
562,68	29291,44
562,87	29303,89
563,07	29056,74
563,27	29349,85
563,47	28683,60
563,66	29184,13
563,86	28683,60
564,06	28834,99
564,25	28542,38
564,45	28786,74
564,65	28527,06
564,84	28370,10
565,04	28267,38
565,24	28099,28
565,43	27781,60
565,63	27789,79
565,83	27680,10
566,02	27509,05
566,22	27679,44
566,42	27617,60
566,61	27338,50
566,81	27649,05
567,01	27662,41
567,20	27751,45
567,40	27408,46
567,60	27301,80
567,79	27288,28
567,99	27146,15
568,19	26809,88
568,38	26926,45
568,58	26383,33
568,78	26653,41
568,97	26397,09
569,17	26329,10
569,37	26250,13
569,56	26170,99
569,76	26221,13
569,96	26049,34
570,15	25555,13
570,35	25652,20
570,55	25367,12
570,74	25221,47
570,94	25220,65
571,13	25163,64
571,33	25017,41
571,53	25319,86
571,72	25265,22
571,92	25268,74
572,12	25470,42
572,31	25557,83
572,51	25435,77
572,71	25273,08
572,90	25415,95
573,10	25334,19
573,29	25338,94
573,49	25215,33
573,69	25033,63
573,88	25021,34
574,08	24967,93
574,28	24732,34
574,47	24584,64
574,67	24635,18
574,86	24319,96
575,06	24425,47
575,26	23968,85
575,45	23975,16
575,65	23785,76
575,84	23905,37
576,04	23809,44
576,24	23962,14
576,43	23809,60
576,63	23901,68
576,82	23636,75
577,02	23649,94
577,22	23614,55
577,41	23447,28
577,61	23576,13
577,80	23275,66
578,00	23093,63
578,20	23191,77
578,39	23079,05
578,59	23000,66
578,78	23067,66
578,98	23170,64
579,17	22868,36
579,37	23207,01
579,57	23170,23
579,76	23323,25
579,96	23318,83
580,15	23181,37
580,35	23253,78
580,55	23358,48
580,74	23199,88
580,94	23398,37
581,13	23218,72
581,33	23365,03
581,52	23262,80
581,72	23401,24
581,91	23427,21
582,11	23578,84
582,31	23287,29
582,50	23624,71
582,70	23615,95
582,89	23545,66
583,09	23437,20
583,28	23482,99
583,48	23307,11
583,67	23514,78
583,87	23269,76
584,07	23366,50
584,26	23243,87
584,46	23269,02
584,65	23026,79
584,85	22950,93
585,04	22688,05
585,24	22686,99
585,43	22507,18
585,63	22509,22
585,82	22596,96
586,02	22450,24
586,21	22375,53
586,41	22297,05
586,61	22479,16
586,80	22493,33
587,00	22300,74
587,19	22591,06
587,39	22114,38
587,58	22271,17
587,78	21846,50
587,97	21808,49
588,17	21489,75
588,36	21316,41
588,56	20725,69
588,75	20470,68
588,95	20162,99
589,14	19969,33
589,34	19842,20
589,53	19907,57
589,73	19906,01
589,92	20180,93
590,12	20277,76
590,31	20296,35
590,51	20607,32
590,70	20550,87
590,90	20694,64
591,09	20836,85
591,29	20641,15
591,48	20748,95
591,68	20771,48
591,87	20627,96
592,07	20596,67
592,26	20679,98
592,46	20710,29
592,65	20564,64
592,85	20534,49
593,04	20674,82
593,24	20550,71
593,43	20576,35
593,63	20337,39
593,82	20407,76
594,01	20346,90
594,21	20283,41
594,40	20242,86
594,60	20218,28
594,79	20079,02
594,99	20119,16
595,18	20083,45
595,38	20075,42
595,57	20101,96
595,77	20138,99
595,96	20151,52
596,16	20197,07
596,35	20105,81
596,54	20144,72
596,74	19929,03
596,93	19990,55
597,13	19947,71
597,32	19778,30
597,52	19713,58
597,71	19745,29
597,91	19489,95
598,10	19626,01
598,29	19536,97
598,49	19537,29
598,68	19487,08
598,88	19620,52
599,07	19373,29
599,27	19632,81
599,46	19452,10
599,65	19460,54
599,85	19297,44
600,04	19352,40
600,24	19012,60
600,43	19115,58
600,63	19106,57
600,82	19041,69
601,01	18869,74
601,21	19119,43
601,40	18743,67
601,60	18859,01
601,79	18730,23
601,99	18824,93
602,18	18570,73
602,37	18834,02
602,57	18730,80
602,76	18842,38
602,96	18780,61
603,15	19056,59
603,34	18868,26
603,54	19016,37
603,73	19026,61
603,93	19089,20
604,12	18995,57
604,31	18993,60
604,51	18853,68
604,70	19023,17
604,90	18809,61
605,09	18895,79
605,28	18790,52
605,48	18641,10
605,67	18596,62
605,86	18625,70
606,06	18559,02
606,25	18615,71
606,45	18496,84
606,64	18477,35
606,83	18343,98
607,03	18437,53
607,22	18450,64
607,41	18331,94
607,61	18223,32
607,80	18343,00
608,00	18101,83
608,19	18140,83
608,38	17978,30
608,58	18023,68
608,77	18005,50
608,96	18030,40
609,16	17793,74
609,35	17739,91
609,54	17702,97
609,74	17676,84
609,93	17627,28
610,12	17515,62
610,32	17673,81
610,51	17515,29
610,71	17430,34
610,90	17521,19
611,09	17335,15
611,29	17409,78
611,48	17306,16
611,67	17235,95
611,87	17211,62
612,06	17115,86
612,25	17053,76
612,45	17066,95
612,64	16930,64
612,83	16854,05
613,03	16786,87
613,22	16742,23
613,41	16697,58
613,61	16599,69
613,80	16667,52
613,99	16591,58
614,18	16499,34
614,38	16587,81
614,57	16504,25
614,76	16564,87
614,96	16577,00
615,15	16474,02
615,34	16368,84
615,54	16316,49
615,73	16253,25
615,92	16188,05
616,12	16031,91
616,31	16179,53
616,50	15944,75
616,69	15988,33
616,89	15953,68
617,08	16063,28
617,27	16132,26
617,47	16197,47
617,66	16196,40
617,85	16443,55
618,05	16390,47
618,24	16354,51
618,43	16455,43
618,62	16510,97
618,82	16445,19
619,01	16573,64
619,20	16632,78
619,40	16585,19
619,59	16716,67
619,78	16795,15
619,97	16767,95
620,17	16815,22
620,36	16909,59
620,55	16858,71
620,74	16813,99
620,94	16916,55
621,13	16919,66
621,32	16829,22
621,51	16723,63
621,71	16880,91
621,90	16828,40
622,09	16991,59
622,29	16675,63
622,48	16761,40
622,67	16870,35
622,86	16895,17
623,06	16932,20
623,25	16773,93
623,44	16675,54
623,63	16796,95
623,83	16787,61
624,02	16771,39
624,21	16571,92
624,40	16696,60
624,59	16616,89
624,79	16618,28
624,98	16546,93
625,17	16682,67
625,36	16489,26
625,56	16675,63
625,75	16428,72
625,94	16516,54
626,13	16579,04
626,33	16597,56
626,52	16466,32
626,71	16584,29
626,90	16364,99
627,09	16207,13
627,29	15949,50
627,48	16019,38
627,67	15853,41
627,86	15740,77
628,05	15686,95
628,25	15725,61
628,44	15615,93
628,63	15734,05
628,82	15478,38
629,02	15634,93
629,21	15505,66
629,40	15411,70
629,59	15414,65
629,78	15419,24
629,98	15415,55
630,17	15395,07
630,36	15237,30
630,55	15392,21
630,74	15187,57
630,93	15367,06
631,13	15169,30
631,32	15202,73
631,51	15224,44
631,70	15153,33
631,89	15191,59
632,09	15028,40
632,28	15134,41
632,47	15211,17
632,66	15071,17
632,85	15226,65
633,04	15025,46
633,24	15031,27
633,43	15033,24
633,62	14990,31
633,81	14929,20
634,00	14921,75
634,19	14950,66
634,39	14799,69
634,58	14892,34
634,77	14888,00
634,96	14802,72
635,15	14838,43
635,34	14796,00
635,54	14799,20
635,73	14675,33
635,92	14708,59
636,11	14671,07
636,30	14663,70
636,49	14657,89
636,68	14526,57
636,88	14581,05
637,07	14568,84
637,26	14496,92
637,45	14511,74
637,64	14569,25
637,83	14486,27
638,02	14412,05
638,21	14502,65
638,41	14520,59
638,60	14380,35
638,79	14283,11
638,98	14395,75
639,17	14198,49
639,36	14180,87
639,55	14111,82
639,74	13967,80
639,94	13954,04
640,13	13873,35
640,32	13873,27
640,51	13811,50
640,70	13885,23
640,89	13771,12
641,08	13614,81
641,27	13689,44
641,46	13536,66
641,66	13689,11
641,85	13591,39
642,04	13535,35
642,23	13531,58
642,42	13595,07
642,61	13472,11
642,80	13484,48
642,99	13422,96
643,18	13451,22
643,37	13456,38
643,56	13344,56
643,76	13246,59
643,95	13306,23
644,14	13133,38
644,33	13208,50
644,52	13185,31
644,71	13093,48
644,90	13070,71
645,09	13086,19
645,28	12840,93
645,47	12885,98
645,66	12866,08
645,85	12828,80
646,04	12671,60
646,24	12695,77
646,43	12511,12
646,62	12617,04
646,81	12515,14
647,00	12527,51
647,19	12401,60
647,38	12342,21
647,57	12372,43
647,76	12284,78
647,95	12250,62
648,14	12271,76
648,33	12169,77
648,52	12098,74
648,71	12083,92
648,90	11917,79
649,09	11851,27
649,28	11850,04
649,47	11834,47
649,66	11833,33
649,85	11845,37
650,05	11864,37
650,24	11881,58
650,43	11927,78
650,62	11913,12
650,81	11938,43
651,00	11918,36
651,19	11857,74
651,38	11841,44
651,57	11833,74
651,76	11837,59
651,95	11777,29
652,14	11748,95
652,33	11701,27
652,52	11730,27
652,71	11709,38
652,90	11697,51
653,09	11771,81
653,28	11668,34
653,47	11654,99
653,66	11603,22
653,85	11665,23
654,04	11487,96
654,23	11505,98
654,42	11442,00
654,61	11370,73
654,80	11202,96
654,99	10992,68
655,18	10874,88
655,37	10681,39
655,56	10424,98
655,75	10267,04
655,94	10057,90
656,13	9929,62
656,32	9865,56
656,51	9845,32
656,70	9900,86
656,89	9993,35
657,08	10073,63
657,27	10174,64
657,46	10346,58
657,65	10439,89
657,84	10650,75
658,03	10728,57
658,22	10700,47
658,40	10798,20
658,59	10748,48
658,78	10797,63
658,97	10861,12
659,16	10911,58
659,35	10834,33
659,54	10813,93
659,73	10831,95
659,92	10833,75
660,11	10826,96
660,30	10787,80
660,49	10856,28
660,68	10835,64
660,87	10860,30
661,06	10843,58
661,25	10851,69
661,44	10794,43
661,63	10829,99
661,82	10802,38
662,01	10783,46
662,19	10811,64
662,38	10783,37
662,57	10779,77
662,76	10680,73
662,95	10661,48
663,14	10612,41
663,33	10586,93
663,52	10542,53
663,71	10564,41
663,90	10477,49
664,09	10503,62
664,28	10452,42
664,47	10513,04
664,65	10447,10
664,84	10524,43
665,03	10460,53
665,22	10480,60
665,41	10418,67
665,60	10428,09
665,79	10381,32
665,98	10386,89
666,17	10308,66
666,36	10310,70
666,55	10309,15
666,73	10254,18
666,92	10303,33
667,11	10313,65
667,30	10149,32
667,49	10208,31
667,68	10177,59
667,87	10190,36
668,06	10102,14
668,25	10238,94
668,43	10157,35
668,62	10129,34
668,81	10078,55
669,00	10097,06
669,19	10031,85
669,38	10113,61
669,57	9959,93
669,76	9978,52
669,94	9945,92
670,13	9961,48
670,32	9869,98
670,51	9867,69
670,70	9846,47
670,89	9809,61
671,08	9762,59
671,26	9772,74
671,45	9762,34
671,64	9646,67
671,83	9684,27
672,02	9615,87
672,21	9643,31
672,40	9594,90
672,58	9632,66
672,77	9569,34
672,96	9565,82
673,15	9697,13
673,34	9579,33
673,53	9534,61
673,71	9531,66
673,90	9575,48
674,09	9458,01
674,28	9480,05
674,47	9445,15
674,66	9444,00
674,84	9340,95
675,03	9373,47
675,22	9336,28
675,41	9393,79
675,60	9300,81
675,79	9286,23
675,97	9277,87
676,16	9320,39
676,35	9261,57
676,54	9299,01
676,73	9223,23
676,91	9222,90
677,10	9150,24
677,29	9157,62
677,48	9107,64
677,67	9161,71
677,86	9099,70
678,04	9071,68
678,23	9067,26
678,42	9066,52
678,61	9031,71
678,80	8997,14
678,98	9024,42
679,17	8984,77
679,36	8946,67
679,55	8931,93
679,73	8907,93
679,92	8935,45
680,11	8763,83
680,30	8805,20
680,49	8780,95
680,67	8782,10
680,86	8747,86
681,05	8743,11
681,24	8770,55
681,42	8681,91
681,61	8718,94
681,80	8648,33
681,99	8710,26
682,18	8578,70
682,36	8619,25
682,55	8576,57
682,74	8565,92
682,93	8526,76
683,11	8507,51
683,30	8450,98
683,49	8417,97
683,68	8364,81
683,86	8234,39
684,05	8365,95
684,24	8211,13
684,43	8221,53
684,61	8191,55
684,80	8201,79
684,99	8143,22
685,18	8165,82
685,36	8107,01
685,55	8029,51
685,74	7944,40
685,93	7710,93
686,11	7498,92
686,30	7174,69
686,49	6851,11
686,67	6507,54
686,86	6187,41
687,05	5990,96
687,24	5789,94
687,42	5678,20
687,61	5631,91
687,80	5638,96
687,99	5698,43
688,17	5691,47
688,36	5767,33
688,55	5806,48
688,73	5803,62
688,92	5907,73
689,11	5875,62
689,29	5889,06
689,48	5915,03
689,67	6010,95
689,86	6001,37
690,04	6055,19
690,23	6111,30
690,42	6228,53
690,60	6210,01
690,79	6353,86
690,98	6404,65
691,16	6471,09
691,35	6477,64
691,54	6572,75
691,72	6582,34
691,91	6662,70
692,10	6677,52
692,29	6736,67
692,47	6703,74
692,66	6766,49
692,85	6731,51
693,03	6757,48
693,22	6746,01
693,41	6730,12
693,59	6673,10
693,78	6718,16
693,97	6687,44
694,15	6665,65
694,34	6636,65
694,53	6675,97
694,71	6647,30
694,90	6658,27
695,09	6650,41
695,27	6669,82
695,46	6672,28
695,64	6638,70
695,83	6652,62
696,02	6667,20
696,20	6723,73
696,39	6695,87
696,58	6745,35
696,76	6721,27
696,95	6761,00
697,14	6717,01
697,32	6786,72
697,51	6694,48
697,70	6706,93
697,88	6668,19
698,07	6617,72
698,25	6627,31
698,44	6586,19
698,63	6541,05
698,81	6458,23
699,00	6446,68
699,19	6458,15
699,37	6430,54
699,56	6345,10
699,74	6320,44
699,93	6315,77
700,12	6263,75
700,30	6268,75
700,49	6217,22
700,67	6270,06
700,86	6174,13
701,05	6201,99
701,23	6131,70
701,42	6114,74
701,60	6127,69
701,79	6031,19
701,98	6043,56
702,16	6043,56
702,35	6023,08
702,53	6068,38
702,72	6068,13
702,91	6093,94
703,09	6038,72
703,28	6034,22
703,46	6061,17
703,65	6106,80
703,83	6014,56
704,02	6046,59
704,21	6039,54
704,39	5997,60
704,58	5975,48
704,76	6019,64
704,95	5976,63
705,13	5948,28
705,32	5903,72
705,51	5940,83
705,69	5952,63
705,88	5915,27
706,06	5902,49
706,25	5885,29
706,43	5891,10
706,62	5833,60
706,80	5825,90
706,99	5819,59
707,18	5827,86
707,36	5849,90
707,55	5806,56
707,73	5765,93
707,92	5769,87
708,10	5716,45
708,29	5767,90
708,47	5686,47
708,66	5696,88
708,84	5664,44
709,03	5641,83
709,21	5666,81
709,40	5645,10
709,59	5632,98
709,77	5565,56
709,96	5578,26
710,14	5587,35
710,33	5597,51
710,51	5580,80
710,70	5516,82
710,88	5586,53
711,07	5495,03
711,25	5459,39
711,44	5456,94
711,62	5436,62
711,81	5416,80
711,99	5433,92
712,18	5389,60
712,36	5356,83
712,55	5328,65
712,73	5314,07
712,92	5293,10
713,10	5277,04
713,29	5269,10
713,47	5246,73
713,66	5252,22
713,84	5211,83
714,03	5196,84
714,21	5194,63
714,40	5158,18
714,58	5062,01
714,77	5084,53
714,95	5035,46
715,14	5047,26
715,32	4979,35
715,51	5004,50
715,69	4938,47
715,87	4892,11
716,06	4813,79
716,24	4720,98
716,43	4665,03
716,61	4586,06
716,80	4477,92
716,98	4422,38
717,17	4269,85
717,35	4228,89
717,54	4160,33
717,72	4080,29
717,91	3988,54
718,09	3912,60
718,27	3865,25
718,46	3832,81
718,64	3765,15
718,83	3713,70
719,01	3687,16
719,20	3634,16
719,38	3626,46
719,57	3584,35
719,75	3566,58
719,93	3572,56
720,12	3590,09
720,30	3613,68
720,49	3683,23
720,67	3728,04
720,86	3780,96
721,04	3849,61
721,22	3922,27
721,41	3941,03
721,59	4013,94
721,78	4016,72
721,96	4030,57
722,14	4055,55
722,33	4057,76
722,51	4026,72
722,70	3937,18
722,88	3917,27
723,06	3893,84
723,25	3817,99
723,43	3721,00
723,62	3737,62
723,80	3682,33
723,98	3646,12
724,17	3627,44
724,35	3577,06
724,54	3545,03
724,72	3580,10
724,90	3538,56
725,09	3560,43
725,27	3545,44
725,46	3556,75
725,64	3493,26
725,82	3543,07
726,01	3522,18
726,19	3550,03
726,38	3546,10
726,56	3518,49
726,74	3541,02
726,93	3536,19
727,11	3499,98
727,29	3501,13
727,48	3439,85
727,66	3428,14
727,84	3474,83
728,03	3440,10
728,21	3460,90
728,40	3419,12
728,58	3426,01
728,76	3376,69
728,95	3437,97
729,13	3385,62
729,31	3410,61
729,50	3410,03
729,68	3446,57
729,86	3416,91
730,05	3399,22
730,23	3421,75
730,41	3399,63
730,60	3416,18
730,78	3407,90
730,96	3426,01
731,15	3378,74
731,33	3412,00
731,51	3453,28
731,70	3451,97
731,88	3458,94
732,06	3499,81
732,25	3477,29
732,43	3538,23
732,61	3553,80
732,80	3563,14
732,98	3585,91
733,16	3573,30
733,34	3611,39
733,53	3607,29
733,71	3598,36
733,89	3640,14
734,08	3607,87
734,26	3619,91
734,44	3633,10
734,63	3644,40
734,81	3645,71
734,99	3596,40
735,18	3556,01
735,36	3543,07
735,54	3547,82
735,72	3540,53
735,91	3512,18
736,09	3510,55
736,27	3497,68
736,46	3472,70
736,64	3503,66
736,82	3479,99
737,00	3483,43
737,19	3513,50
737,37	3450,25
737,55	3487,61
737,73	3450,34
737,92	3465,57
738,10	3454,02
738,28	3467,46
738,47	3391,11
738,65	3450,34
738,83	3392,99
739,01	3379,39
739,20	3337,04
739,38	3341,71
739,56	3365,39
739,74	3357,77
739,93	3362,19
740,11	3367,52
740,29	3329,83
740,47	3330,73
740,66	3321,48
740,84	3304,52
741,02	3299,69
741,20	3268,89
741,38	3266,76
741,57	3277,08
741,75	3269,21
741,93	3226,12
742,11	3259,79
742,30	3255,37
742,48	3239,64
742,66	3237,27
742,84	3222,11
743,03	3244,88
743,21	3273,72
743,39	3238,33
743,57	3223,26
743,75	3246,28
743,94	3182,13
744,12	3195,65
744,30	3182,22
744,48	3167,47
744,66	3157,64
744,85	3171,48
745,03	3137,98
745,21	3152,48
745,39	3153,87
745,57	3120,94
745,76	3111,11
745,94	3159,77
746,12	3142,98
746,30	3140,60
746,48	3088,50
746,67	3101,61
746,85	3129,62
747,03	3101,44
747,21	3079,65
747,39	3114,31
747,57	3108,00
747,76	3086,94
747,94	3093,50
748,12	3097,18
748,30	3069,66
748,48	3069,33
748,67	3087,93
748,85	3075,80
749,03	3071,63
749,21	3084,90
749,39	3067,78
749,57	3074,57
749,75	3112,91
749,94	3098,41
750,12	3083,26
750,30	3098,74
750,48	3075,56
750,66	3076,46
750,84	3098,41
751,03	3088,50
751,21	3101,03
751,39	3139,95
751,57	3147,89
751,75	3154,04
751,93	3152,56
752,11	3160,51
752,29	3170,34
752,48	3147,73
752,66	3182,95
752,84	3213,02
753,02	3191,96
753,20	3210,97
753,38	3215,80
753,56	3249,72
753,74	3257,91
753,93	3264,54
754,11	3253,81
754,29	3277,73
754,47	3280,60
754,65	3282,57
754,83	3281,01
755,01	3299,69
755,19	3290,35
755,37	3307,47
755,56	3310,34
755,74	3293,13
755,92	3313,12
756,10	3323,44
756,28	3305,91
756,46	3331,23
756,64	3327,21
756,82	3292,81
757,00	3283,88
757,18	3338,76
757,36	3319,68
757,55	3336,22
757,73	3301,00
757,91	3273,72
758,09	3280,11
758,27	3250,21
758,45	3156,58
758,63	3063,27
758,81	2898,61
758,99	2690,95
759,17	2414,80
759,35	2190,51
759,53	1850,46
759,71	1609,29
759,89	1354,61
760,08	1148,50
760,26	942,64
760,44	819,92
760,62	719,08
760,80	714,50
760,98	715,15
761,16	754,39
761,34	819,60
761,52	877,92
761,70	918,15
761,88	935,68
762,06	942,31
762,24	948,62
762,42	891,28
762,60	897,75
762,78	860,80
762,96	852,94
763,14	825,17
763,32	866,95
763,50	850,73
763,68	873,42
763,86	917,98
764,04	946,98
764,22	1014,24
764,40	1069,20
764,58	1122,70
764,76	1197,00
764,94	1259,58
765,12	1388,20
765,30	1404,99
765,48	1496,74
765,66	1590,29
765,84	1624,94
766,02	1703,42
766,20	1785,42
766,38	1840,88
766,56	1907,64
766,74	1983,66
766,92	2053,70
767,10	2098,76
767,28	2131,20
767,46	2206,48
767,64	2213,77
767,82	2241,87
768,00	2305,28
768,18	2262,68
768,36	2310,52
768,54	2327,31
768,72	2336,90
768,90	2318,22
769,08	2327,48
769,26	2305,11
769,44	2334,93
769,62	2325,26
769,80	2323,79
769,98	2316,09
770,16	2338,12
770,34	2339,35
770,52	2315,19
770,70	2303,96
770,88	2305,11
771,06	2278,57
771,24	2280,95
771,42	2247,93
771,60	2241,38
771,78	2253,67
771,96	2234,17
772,13	2186,41
772,31	2227,78
772,49	2188,71
772,67	2172,32
772,85	2169,37
773,03	2144,71
773,21	2132,51
773,39	2164,54
773,57	2121,20
773,75	2112,68
773,93	2078,44
774,11	2097,04
774,29	2076,80
774,47	2049,03
774,64	2015,20
774,82	2027,73
775,00	1990,87
775,18	1995,05
775,36	1991,04
775,54	2007,91
775,72	1975,06
775,90	1958,02
776,08	1960,07
776,26	1933,53
776,43	1926,48
776,61	1901,58
776,79	1890,85
776,97	1882,41
777,15	1893,55
777,33	1885,11
777,51	1858,49
777,69	1859,15
777,87	1837,52
778,04	1837,19
778,22	1819,09
778,40	1791,15
778,58	1803,11
778,76	1791,64
778,94	1783,86
779,12	1768,05
779,30	1767,48
779,47	1737,66
779,65	1706,78
779,83	1724,96
780,01	1697,44
780,19	1697,85
780,37	1678,11
780,55	1678,60
780,73	1667,95
780,90	1658,94
781,08	1653,94
781,26	1645,75
781,44	1631,00
781,62	1612,00
781,80	1632,72
781,97	1635,43
782,15	1608,31
782,33	1609,54
782,51	1600,28
782,69	1578,57
782,87	1561,62
783,04	1558,50
783,22	1546,87
783,40	1531,80
783,58	1506,81
783,76	1494,69
783,94	1472,98
784,11	1500,34
784,29	1507,14
784,47	1466,02
784,65	1460,37
784,83	1459,46
785,01	1461,27
785,18	1452,34
785,36	1448,41
785,54	1435,54
785,72	1429,07
785,90	1412,53
786,07	1427,27
786,25	1379,92
786,43	1387,95
786,61	1377,63
786,79	1388,60
786,96	1393,44
787,14	1350,92
787,32	1338,14
787,50	1343,47
787,67	1343,80
787,85	1333,72
788,03	1319,63
788,21	1306,03
788,39	1282,36
788,56	1301,93
788,74	1264,25
788,92	1272,77
789,10	1237,55
789,27	1239,43
789,45	1226,49
789,63	1224,28
789,81	1252,62
789,99	1203,88
790,16	1216,08
790,34	1195,85
790,52	1197,00
790,70	1186,10
790,87	1161,28
791,05	1171,36
791,23	1148,01
791,41	1140,72
791,58	1174,47
791,76	1122,53
791,94	1138,59
792,12	1151,78
792,29	1129,58
792,47	1116,06
792,65	1124,33
792,82	1087,06
793,00	1077,48
793,18	1083,87
793,36	1096,24
793,53	1074,86
793,71	1089,93
793,89	1052,90
794,07	1084,77
794,24	1055,20
794,42	1065,93
794,60	1022,18
794,77	1056,59
794,95	1038,73
795,13	1022,43
795,31	1025,21
795,48	1030,87
795,66	1024,39
795,84	1014,24
796,01	983,43
796,19	1003,34
796,37	989,99
796,54	1008,50
796,72	981,30
796,90	997,44
797,08	988,68
797,25	984,66
797,43	967,13
797,61	976,80
797,78	975,73
797,96	946,41
798,14	949,19
798,31	946,41
798,49	929,61
798,67	944,77
798,84	944,36
799,02	932,89
799,20	915,28
799,37	918,72
799,55	926,66
799,73	891,77
799,90	879,64
800,08	885,21
800,26	881,20
800,43	893,32
800,61	852,12
800,79	868,42
800,96	843,19
801,14	876,78
801,32	832,79
801,49	871,21
801,67	837,70
801,84	847,70
802,02	853,68
802,20	830,33
802,37	828,12
802,55	832,54
802,73	813,04
802,90	824,51
803,08	788,39
803,26	806,16
803,43	792,07
803,61	816,16
803,78	780,28
803,96	785,60
804,14	783,23
804,31	782,00
804,49	752,92
804,67	775,12
804,84	782,73
805,02	776,26
805,19	761,43
805,37	774,05
805,55	764,79
805,72	777,90
805,90	753,98
806,07	769,95
806,25	748,08
806,43	764,14
806,60	742,76
806,78	744,31
806,95	756,19
807,13	735,06
807,30	733,42
807,48	705,98
807,66	695,49
807,83	711,46
808,01	716,30
808,18	717,44
808,36	700,16
808,54	690,66
808,71	686,56
808,89	676,49
809,06	663,54
809,24	682,47
809,41	662,80
809,59	668,21
809,76	637,25
809,94	651,25
810,12	645,68
810,29	640,69
810,47	635,20
810,64	618,16
810,82	626,27
810,99	618,00
811,17	633,64
811,34	635,20
811,52	615,54
811,69	617,09
811,87	622,34
812,05	609,23
812,22	598,42
812,40	593,67
812,57	599,48
812,75	579,66
812,92	576,87
813,10	560,90
813,27	583,18
813,45	527,97
813,62	532,80
813,80	526,90
813,97	522,15
814,15	524,94
814,32	504,21
814,50	501,10
814,67	498,97
814,85	490,61
815,02	495,94
815,20	483,89
815,37	457,93
815,55	488,48
815,72	454,98
815,90	473,65
816,07	450,39
816,25	453,58
816,42	435,81
816,60	466,85
816,77	448,75
816,95	443,51
817,12	448,26
817,30	432,20
817,47	410,33
817,65	428,93
817,82	439,66
818,00	425,08
818,17	422,13
818,35	398,45
818,52	428,03
818,70	414,92
818,87	411,56
819,04	401,89
819,22	412,05
819,39	419,59
819,57	425,40
819,74	411,48
819,92	405,42
820,09	421,31
820,27	429,42
820,44	414,67
820,62	425,08
820,79	435,15
820,96	424,75
821,14	423,93
821,31	419,42
821,49	416,39
821,66	406,81
821,84	395,83
822,01	392,23
822,18	380,59
822,36	382,89
822,53	371,09
822,71	362,33
822,88	348,65
823,06	358,89
823,23	347,58
823,40	372,48
823,58	374,53
823,75	367,32
823,93	376,83
824,10	371,01
824,27	397,72
824,45	385,84
824,62	383,87
824,80	395,34
824,97	381,74
825,14	382,07
825,32	380,43
825,49	386,49
825,67	373,39
825,84	386,41
826,01	399,44
826,19	381,66
826,36	399,11
826,54	380,68
826,71	381,74
826,88	372,57
827,06	355,53
827,23	375,02
827,40	354,05
827,58	359,62
827,75	338,65
827,93	357,00
828,10	366,50
828,27	320,06
828,45	324,07
828,62	337,67
828,79	333,08
828,97	327,67
829,14	344,63
829,31	328,17
829,49	335,29
829,66	321,53
829,83	337,26
830,01	326,04
830,18	339,64
830,35	346,11
830,53	328,74
830,70	326,04
830,87	320,47
831,05	316,70
831,22	293,35
831,39	322,19
831,57	315,71
831,74	323,01
831,91	337,59
832,09	321,12
832,26	335,13
832,43	313,99
832,61	346,52
832,78	301,87
832,95	320,30
833,13	322,68
833,30	307,11
833,47	339,88
833,65	301,79
833,82	304,08
833,99	292,53
834,16	303,51
834,34	299,25
834,51	296,71
834,68	309,16
834,86	302,85
835,03	316,78
835,20	307,52
835,38	328,33
835,55	288,44
835,72	304,90
835,89	304,90
836,07	302,61
836,24	289,91
836,41	292,20
836,58	301,22
836,76	310,72
836,93	315,88
837,10	289,17
837,28	286,06
837,45	308,18
837,62	303,35
837,79	300,15
837,97	286,72
838,14	311,95
838,31	278,77
838,48	290,89
838,66	290,65
838,83	290,16
839,00	271,56
839,17	288,27
839,35	292,12
839,52	285,57
839,69	281,15
839,86	262,96
840,04	281,72
840,21	282,29
840,38	271,72
840,55	281,06
840,72	260,99
840,90	267,71
841,07	285,65
841,24	280,57
841,41	251,57
841,59	275,17
841,76	259,19
841,93	252,15
842,10	258,45
842,27	243,38
842,45	257,22
842,62	257,88
842,79	253,54
842,96	253,62
843,13	246,90
843,31	265,58
843,48	258,78
843,65	245,02
843,82	266,07
843,99	232,98
844,17	246,25
844,34	239,12
844,51	233,88
844,68	241,25
844,85	247,72
845,02	241,66
845,20	213,64
845,37	238,47
845,54	241,17
845,71	231,50
845,88	232,90
846,06	216,59
846,23	223,56
846,40	254,03
846,57	233,55
846,74	256,32
846,91	224,70
847,09	221,10
847,26	246,41
847,43	220,53
847,60	225,44
847,77	200,86
847,94	202,75
848,11	224,38
848,29	211,76
848,46	214,79
848,63	219,21
848,80	208,24
848,97	198,08
849,14	197,01
849,31	213,07
849,49	201,44
849,66	204,55
849,83	177,68
850,00	191,20
850,17	199,06
850,34	214,79
850,51	197,67
850,68	194,97
850,85	198,49
851,03	202,83
851,20	209,22
851,37	192,92
851,54	181,12
851,71	192,75
851,88	191,20
852,05	195,29
852,22	183,66
852,39	205,78
852,57	187,27
852,74	193,49
852,91	178,99
853,08	192,67
853,25	178,26
853,42	176,62
853,59	192,51
853,76	150,24
853,93	185,55
854,10	205,78
854,27	145,00
854,44	158,59
854,62	142,54
854,79	163,84
854,96	169,08
855,13	150,08
855,30	176,29
855,47	157,45
855,64	172,85
855,81	162,61
855,98	158,10
856,15	154,83
856,32	164,49
856,49	172,68
856,66	143,93
856,83	148,27
857,00	185,14
857,17	147,62
857,34	147,21
857,51	167,36
857,69	164,57
857,86	153,93
858,03	164,74
858,20	157,61
858,37	151,14
858,54	171,70
858,71	148,19
858,88	147,62
859,05	146,22
859,22	142,54
859,39	154,66
859,56	159,09
859,73	136,89
859,90	135,08
860,07	140,82
860,24	155,65
860,41	115,10
860,58	149,42
860,75	143,19
860,92	158,84
861,09	159,17
861,26	136,48
861,43	163,59
861,60	132,87
861,77	138,77
861,94	130,99
862,11	140,16
862,28	141,72
862,45	131,56
862,62	128,28
862,79	138,12
862,96	125,83
863,13	123,94
863,30	141,47
863,47	142,62
863,64	129,60
863,81	136,48
863,98	131,64
864,15	120,34
864,32	121,73
864,48	147,37
864,65	119,93
864,82	133,86
864,99	122,22
865,16	121,24
865,33	114,77
865,50	101,50
865,67	126,73
865,84	116,41
866,01	134,92
866,18	109,28
866,35	122,88
866,52	127,38
866,69	117,55
866,86	104,12
867,03	116,32
867,20	118,21
867,37	86,59
867,53	103,38
867,70	100,02
867,87	107,07
868,04	121,16
868,21	96,83
868,38	103,55
868,55	116,57
868,72	92,65
868,89	110,10
869,06	88,96
869,23	102,56
869,40	110,02
869,56	83,23
869,73	102,97
869,90	105,43
870,07	112,64
870,24	101,33
870,41	107,48
870,58	86,01
870,75	106,90
870,92	96,09
871,08	97,97
871,25	93,31
871,42	82,74
871,59	91,50
871,76	105,27
871,93	83,88
872,10	96,83
872,27	78,15
872,43	91,09
872,60	87,41
872,77	62,18
872,94	99,53
873,11	83,80
873,28	78,89
873,45	99,20
873,62	99,70
873,78	81,51
873,95	84,62
874,12	83,64
874,29	82,66
874,46	70,94
874,63	80,36
874,79	94,12
874,96	109,61
875,13	81,02
875,30	70,78
875,47	89,46
875,64	73,07
875,80	86,59
875,97	72,83
876,14	61,11
876,31	78,72
876,48	68,65
876,65	83,31
876,81	52,43
876,98	77,66
877,15	67,99
877,32	60,78
877,49	55,38
877,65	83,80
877,82	82,49
877,99	71,43
878,16	92,24
878,33	72,17
878,49	84,54
878,66	82,49
878,83	61,44
879,00	80,85
879,17	83,64
879,33	54,64
879,50	52,92
879,67	76,43
879,84	61,36
880,01	48,82
880,17	55,87
880,34	66,11
880,51	47,51
880,68	76,76
880,84	67,42
881,01	60,46
881,18	57,43
881,35	47,10
881,52	70,86
881,68	43,74
881,85	67,83
882,02	57,51
882,19	42,84
882,35	53,41
882,52	48,17
882,69	41,86
882,86	66,76
883,02	88,31
883,19	47,59
883,36	55,79
883,53	75,28
883,69	41,04
883,86	67,91
884,03	54,48
884,19	62,34
884,36	54,72
884,53	48,50
884,70	65,13
884,86	53,33
885,03	49,97
885,20	37,93
885,37	47,27
885,53	26,54
885,70	48,50
885,87	47,68
886,03	55,70
886,20	43,58
886,37	39,08
886,54	61,44
886,70	54,31
886,87	57,75
887,04	48,91
887,20	47,02
887,37	67,91
887,54	37,44
887,70	59,72
887,87	38,50
888,04	44,97
888,20	49,32
888,37	39,32
888,54	46,12
888,71	76,10
888,87	24,58
889,04	60,13
889,21	30,47
889,37	41,37
889,54	51,61
889,71	56,93
889,87	37,03
890,04	40,96
890,21	40,96
890,37	40,96
890,54	40,96
890,71	40,96
890,87	40,96

