SpectraSuite Datei
++++++++++++++++++++++++++++++++++++
Datum: Wed Feb 24 09:37:46 CET 2016
Benutzer: Praktikum-Pc1
Dark-Spektrum vorhanden: Ja
Referenz-Spektrum vorhanden: Nein
Zahl der probierten Teilspektren: 1
Spektrometer: USB4F04607
Integrationszeit (usec): 100000 (USB4F04607)
Spektren Durchschnitt berechnet: 25 (USB4F04607)
Boxcar Glättung: 0 (USB4F04607)
Dunkelstromkorrektur: Nein (USB4F04607)
Puls/Lampe aktiviert: Nein (USB4F04607)
Correct for Detector Non-linearity: Nein (USB4F04607)
Streulichtkorrektur: Nein (USB4F04607)
Anzahl Pixel in verarbeitetem Spektrum: 3648
>>>>>Begin Processed Spectral Data<<<<<
177,66	-8,36
177,88	-8,36
178,10	-8,36
178,32	-11,30
178,53	-19,74
178,75	-12,94
178,97	-25,23
179,19	3,60
179,40	4,10
179,62	-10,73
179,84	14,01
180,05	-5,08
180,27	5,08
180,49	0,16
180,71	7,54
180,92	9,17
181,14	9,83
181,36	24,82
181,58	54,23
181,79	24,25
182,01	35,96
182,23	47,43
182,44	39,24
182,66	39,40
182,88	21,22
183,10	15,24
183,31	24,82
183,53	46,20
183,75	40,80
183,96	25,07
184,18	23,26
184,40	14,34
184,62	29,16
184,83	19,09
185,05	34,98
185,27	24,25
185,48	32,77
185,70	28,34
185,92	21,05
186,14	32,03
186,35	23,26
186,57	26,79
186,79	8,27
187,00	21,38
187,22	43,83
187,44	27,12
187,66	38,91
187,87	39,98
188,09	27,85
188,31	22,28
188,52	41,04
188,74	46,61
188,96	21,79
189,17	28,51
189,39	41,78
189,61	21,95
189,82	18,02
190,04	23,26
190,26	31,70
190,48	36,86
190,69	14,66
190,91	47,19
191,13	30,15
191,34	29,98
191,56	24,33
191,78	38,67
191,99	20,07
192,21	47,10
192,43	41,78
192,64	25,72
192,86	27,28
193,08	32,85
193,29	40,63
193,51	27,61
193,73	43,58
193,94	24,74
194,16	18,35
194,38	21,46
194,60	33,91
194,81	48,25
195,03	49,72
195,25	43,99
195,46	49,64
195,68	36,86
195,90	39,81
196,11	33,75
196,33	25,64
196,55	37,76
196,76	40,30
196,98	30,97
197,20	22,77
197,41	19,66
197,63	48,91
197,85	40,96
198,06	51,94
198,28	34,73
198,50	45,96
198,71	63,65
198,93	43,83
199,14	32,93
199,36	58,33
199,58	25,56
199,79	24,33
200,01	28,67
200,23	24,82
200,44	6,80
200,66	40,06
200,88	32,44
201,09	37,03
201,31	23,51
201,53	27,93
201,74	47,84
201,96	35,55
202,18	22,86
202,39	28,18
202,61	56,03
202,83	23,51
203,04	35,47
203,26	53,08
203,47	53,74
203,69	35,80
203,91	47,10
204,12	41,61
204,34	40,30
204,56	47,76
204,77	33,26
204,99	49,56
205,21	29,16
205,42	12,62
205,64	24,49
205,85	16,30
206,07	40,39
206,29	14,75
206,50	37,27
206,72	22,45
206,94	21,30
207,15	21,30
207,37	38,09
207,58	42,19
207,80	17,37
208,02	36,70
208,23	17,61
208,45	38,34
208,67	55,30
208,88	34,08
209,10	22,86
209,31	19,50
209,53	32,93
209,75	33,34
209,96	27,28
210,18	54,07
210,40	11,88
210,61	41,94
210,83	58,98
211,04	38,50
211,26	41,21
211,48	50,54
211,69	40,88
211,91	44,56
212,12	33,91
212,34	45,55
212,56	40,55
212,77	53,49
212,99	32,36
213,20	44,56
213,42	31,54
213,64	25,80
213,85	40,22
214,07	35,88
214,28	40,63
214,50	41,04
214,72	14,58
214,93	53,66
215,15	48,17
215,36	30,31
215,58	32,11
215,80	53,66
216,01	49,89
216,23	37,76
216,44	40,63
216,66	32,52
216,88	36,21
217,09	49,97
217,31	44,97
217,52	36,13
217,74	38,83
217,95	36,78
218,17	38,50
218,39	21,22
218,60	32,19
218,82	43,01
219,03	32,36
219,25	44,48
219,47	26,21
219,68	36,62
219,90	26,79
220,11	42,60
220,33	43,42
220,54	31,87
220,76	34,98
220,98	56,03
221,19	41,45
221,41	50,13
221,62	44,81
221,84	38,01
222,05	48,82
222,27	50,38
222,48	25,31
222,70	33,01
222,92	26,87
223,13	51,44
223,35	75,86
223,56	43,34
223,78	32,03
223,99	55,38
224,21	25,97
224,43	29,16
224,64	42,84
224,86	28,75
225,07	32,11
225,29	50,71
225,50	53,41
225,72	40,80
225,93	53,08
226,15	38,58
226,37	55,05
226,58	56,44
226,80	34,57
227,01	39,32
227,23	52,10
227,44	50,46
227,66	29,00
227,87	42,19
228,09	42,02
228,30	27,69
228,52	33,91
228,74	46,94
228,95	55,70
229,17	33,50
229,38	40,22
229,60	45,30
229,81	49,23
230,03	21,22
230,24	36,13
230,46	35,88
230,67	43,91
230,89	30,23
231,10	42,02
231,32	50,63
231,53	57,18
231,75	42,11
231,97	55,21
232,18	40,06
232,40	32,44
232,61	25,31
232,83	47,27
233,04	48,66
233,26	40,14
233,47	28,51
233,69	62,09
233,90	36,62
234,12	48,25
234,33	31,62
234,55	34,49
234,76	43,01
234,98	52,18
235,19	43,42
235,41	35,39
235,62	40,71
235,84	23,84
236,05	44,73
236,27	60,62
236,48	62,01
236,70	44,24
236,91	47,19
237,13	35,72
237,34	45,55
237,56	45,38
237,77	49,15
237,99	57,51
238,20	57,02
238,42	50,30
238,63	36,45
238,85	46,78
239,06	38,75
239,28	45,55
239,49	49,23
239,71	74,38
239,92	53,98
240,14	46,94
240,35	37,35
240,57	46,69
240,78	22,86
241,00	47,51
241,21	53,57
241,43	36,70
241,64	59,55
241,86	35,55
242,07	42,02
242,29	26,30
242,50	60,13
242,72	54,48
242,93	49,40
243,15	64,31
243,36	66,19
243,58	49,81
243,79	48,17
244,01	52,02
244,22	23,43
244,44	26,54
244,65	48,91
244,87	42,52
245,08	33,34
245,29	49,97
245,51	65,21
245,72	56,20
245,94	53,74
246,15	31,70
246,37	51,53
246,58	38,58
246,80	64,63
247,01	38,01
247,23	41,53
247,44	55,54
247,66	44,97
247,87	46,86
248,09	50,79
248,30	51,77
248,51	36,95
248,73	46,12
248,94	52,67
249,16	58,08
249,37	56,77
249,59	62,67
249,80	49,64
250,02	51,20
250,23	57,92
250,45	73,64
250,66	52,84
250,87	44,24
251,09	68,65
251,30	51,20
251,52	56,11
251,73	66,03
251,95	43,42
252,16	54,89
252,38	70,53
252,59	82,08
252,80	52,26
253,02	40,96
253,23	58,57
253,45	57,59
253,66	52,51
253,88	73,89
254,09	51,12
254,30	53,00
254,52	30,23
254,73	64,88
254,95	42,76
255,16	71,52
255,38	61,77
255,59	53,57
255,80	58,90
256,02	64,72
256,23	26,62
256,45	62,50
256,66	69,71
256,88	61,19
257,09	54,97
257,30	44,65
257,52	54,72
257,73	54,72
257,95	59,31
258,16	74,63
258,38	40,30
258,59	44,56
258,80	56,52
259,02	59,39
259,23	59,88
259,45	62,09
259,66	77,33
259,87	77,25
260,09	46,94
260,30	48,58
260,52	51,28
260,73	48,00
260,94	50,79
261,16	58,24
261,37	75,28
261,59	59,88
261,80	51,77
262,01	63,49
262,23	80,36
262,44	37,52
262,66	53,25
262,87	59,55
263,08	72,99
263,30	48,00
263,51	54,07
263,73	53,33
263,94	63,65
264,15	56,11
264,37	65,78
264,58	69,30
264,80	60,21
265,01	70,45
265,22	75,12
265,44	44,15
265,65	65,62
265,86	69,47
266,08	68,48
266,29	38,42
266,51	65,37
266,72	52,43
266,93	86,75
267,15	84,87
267,36	71,02
267,58	44,89
267,79	71,11
268,00	31,05
268,22	50,13
268,43	68,89
268,64	72,74
268,86	78,81
269,07	76,92
269,28	79,38
269,50	84,05
269,71	72,99
269,93	69,06
270,14	69,39
270,35	62,01
270,57	76,76
270,78	37,19
270,99	58,16
271,21	77,25
271,42	82,00
271,63	70,45
271,85	57,51
272,06	84,29
272,28	87,82
272,49	52,43
272,70	79,71
272,92	81,59
273,13	84,21
273,34	94,12
273,56	84,29
273,77	81,10
273,98	68,32
274,20	61,68
274,41	72,42
274,62	70,29
274,84	65,94
275,05	102,81
275,26	64,39
275,48	65,37
275,69	56,44
275,90	82,66
276,12	73,40
276,33	79,95
276,54	73,32
276,76	48,33
276,97	80,53
277,18	74,38
277,40	71,02
277,61	82,66
277,82	64,31
278,04	72,17
278,25	79,22
278,46	77,99
278,68	83,39
278,89	80,44
279,10	75,69
279,32	66,11
279,53	88,23
279,74	72,42
279,96	82,16
280,17	75,53
280,38	64,80
280,60	72,74
280,81	82,98
281,02	99,78
281,24	62,67
281,45	87,16
281,66	84,95
281,88	88,23
282,09	83,80
282,30	103,05
282,52	90,03
282,73	97,40
282,94	88,88
283,15	91,18
283,37	114,93
283,58	86,26
283,79	94,86
284,01	75,53
284,22	100,27
284,43	77,90
284,65	103,71
284,86	103,38
285,07	94,29
285,28	91,01
285,50	97,97
285,71	93,88
285,92	103,46
286,14	95,68
286,35	95,44
286,56	88,23
286,77	112,56
286,99	93,47
287,20	109,61
287,41	100,68
287,63	103,38
287,84	114,85
288,05	111,16
288,27	107,23
288,48	92,49
288,69	114,28
288,90	101,74
289,12	92,32
289,33	115,59
289,54	107,64
289,75	102,07
289,97	92,73
290,18	99,78
290,39	128,86
290,61	123,12
290,82	111,08
291,03	119,44
291,24	132,38
291,46	123,53
291,67	121,90
291,88	101,50
292,09	128,86
292,31	116,49
292,52	131,73
292,73	112,23
292,95	118,21
293,16	120,99
293,37	145,57
293,58	135,49
293,80	123,37
294,01	141,31
294,22	130,17
294,43	130,66
294,65	125,17
294,86	150,89
295,07	145,57
295,28	125,09
295,50	122,80
295,71	125,50
295,92	158,19
296,13	135,25
296,35	135,08
296,56	139,75
296,77	150,24
296,98	145,73
297,20	139,51
297,41	162,20
297,62	150,48
297,83	161,79
298,05	158,27
298,26	153,52
298,47	165,31
298,68	160,31
298,89	157,04
299,11	160,89
299,32	162,94
299,53	169,98
299,74	157,61
299,96	181,12
300,17	179,81
300,38	165,07
300,59	161,87
300,81	183,42
301,02	181,04
301,23	189,48
301,44	174,16
301,65	191,36
301,87	192,67
302,08	193,82
302,29	195,62
302,50	204,71
302,72	203,16
302,93	232,73
303,14	223,80
303,35	234,53
303,56	238,14
303,78	243,05
303,99	236,50
304,20	251,57
304,41	268,28
304,62	264,11
304,84	285,24
305,05	278,11
305,26	296,22
305,47	311,54
305,68	336,11
305,90	313,18
306,11	309,82
306,32	359,05
306,53	368,88
306,74	373,80
306,96	404,02
307,17	422,95
307,38	470,62
307,59	483,07
307,80	484,22
308,02	517,07
308,23	515,51
308,44	551,89
308,65	574,74
308,86	609,48
309,08	628,73
309,29	680,99
309,50	717,85
309,71	764,55
309,92	831,88
310,13	925,52
310,35	978,77
310,56	1084,93
310,77	1118,11
310,98	1158,00
311,19	1204,62
311,41	1277,69
311,62	1300,30
311,83	1381,97
312,04	1479,78
312,25	1549,08
312,46	1645,34
312,68	1709,32
312,89	1752,16
313,10	1842,60
313,31	1878,89
313,52	1993,17
313,73	2055,59
313,95	2125,22
314,16	2286,02
314,37	2356,31
314,58	2391,70
314,79	2486,97
315,00	2495,00
315,22	2519,57
315,43	2514,41
315,64	2634,26
315,85	2671,45
316,06	2876,00
316,27	3013,46
316,48	3307,47
316,70	3376,20
316,91	3553,39
317,12	3573,46
317,33	3693,47
317,54	3609,83
317,75	3684,71
317,97	3785,96
318,18	4041,05
318,39	4184,57
318,60	4470,39
318,81	4571,48
319,02	4767,59
319,23	4791,84
319,45	4923,15
319,66	4995,90
319,87	5304,32
320,08	5546,96
320,29	5903,15
320,50	6085,99
320,71	6188,96
320,92	6149,97
321,14	6301,60
321,35	6282,51
321,56	6346,08
321,77	6312,66
321,98	6275,22
322,19	6175,12
322,40	6266,29
322,61	6337,56
322,83	6656,31
323,04	6853,40
323,25	7327,30
323,46	7635,32
323,67	7860,10
323,88	7978,56
324,09	8147,39
324,30	8111,76
324,52	8247,74
324,73	8344,90
324,94	8679,70
325,15	9170,15
325,36	9787,98
325,57	10175,87
325,78	10637,23
325,99	11165,20
326,20	11340,42
326,41	11544,48
326,63	11634,76
326,84	11301,92
327,05	11436,02
327,26	11044,94
327,47	11071,56
327,68	10738,24
327,89	11078,61
328,10	11069,84
328,31	11696,60
328,52	12135,03
328,74	12766,71
328,95	13153,45
329,16	14031,86
329,37	14222,65
329,58	14074,13
329,79	13813,63
330,00	13575,90
330,21	13059,08
330,42	12940,62
330,63	12716,98
330,84	12602,71
331,06	12785,39
331,27	13217,51
331,48	12963,15
331,69	13446,23
331,90	13538,06
332,11	13598,92
332,32	13601,22
332,53	13752,85
332,74	13263,96
332,95	13459,09
333,16	13083,24
333,37	13223,00
333,58	13151,81
333,79	13597,45
334,01	13682,15
334,22	14276,14
334,43	14194,23
334,64	14620,69
334,85	14597,43
335,06	14469,06
335,27	14105,59
335,48	13830,42
335,69	13361,52
335,90	13199,81
336,11	12865,83
336,32	12950,45
336,53	12717,23
336,74	12995,75
336,95	12808,90
337,16	13335,80
337,37	13451,80
337,59	14101,66
337,80	14216,18
338,01	14447,68
338,22	14806,24
338,43	15027,99
338,64	15034,79
338,85	15248,68
339,06	15467,16
339,27	15783,20
339,48	15868,73
339,69	16180,02
339,90	16164,95
340,11	16220,24
340,32	16056,98
340,53	15909,19
340,74	15536,55
340,95	15612,81
341,16	15714,97
341,37	16065,41
341,58	16231,63
341,79	16622,87
342,00	16214,67
342,21	16468,78
342,42	16474,84
342,63	16558,40
342,84	16499,17
343,05	16050,50
343,26	15689,32
343,48	15192,41
343,69	14348,89
343,90	14272,87
344,11	13951,50
344,32	14346,68
344,53	15171,27
344,74	15737,98
344,95	15728,48
345,16	15988,98
345,37	16041,58
345,58	15986,85
345,79	15990,05
346,00	16025,19
346,21	15989,80
346,42	16249,24
346,63	16187,64
346,84	16205,74
347,05	16028,88
347,26	16083,68
347,47	15850,46
347,68	15966,70
347,89	16005,45
348,10	16120,05
348,31	16265,79
348,52	16285,45
348,73	15910,10
348,94	16190,09
349,15	15901,90
349,36	16756,40
349,57	17097,67
349,78	17792,67
349,99	18172,36
350,20	18663,88
350,41	18246,01
350,62	18033,27
350,83	17922,92
351,04	17649,31
351,25	17776,70
351,45	17642,10
351,66	17269,54
351,87	17090,46
352,08	16929,33
352,29	17181,15
352,50	17223,50
352,71	17650,87
352,92	18420,41
353,13	18962,72
353,34	19197,41
353,55	19481,84
353,76	19650,26
353,97	19987,44
354,18	19810,58
354,39	19985,23
354,60	19830,32
354,81	19659,35
355,02	19487,24
355,23	19236,82
355,44	18830,74
355,65	18665,51
355,86	18148,44
356,07	17766,21
356,28	16887,55
356,49	16407,26
356,70	15910,91
356,91	15961,13
357,12	15710,38
357,32	15417,60
357,53	14914,54
357,74	14590,79
357,95	14176,70
358,16	14331,11
358,37	14725,55
358,58	15650,58
358,79	16616,07
359,00	17934,06
359,21	18888,99
359,42	19246,24
359,63	19090,76
359,84	19037,51
360,05	18186,70
360,26	18049,73
360,47	17534,95
360,68	17220,14
360,88	16871,08
361,09	17288,62
361,30	16961,60
361,51	17485,31
361,72	17800,45
361,93	18436,96
362,14	18645,12
362,35	19282,04
362,56	19023,66
362,77	19198,56
362,98	19025,63
363,19	19131,80
363,40	19024,48
363,60	19394,67
363,81	19650,01
364,02	19674,34
364,23	19471,68
364,44	19726,53
364,65	19820,00
364,86	20598,63
365,07	21353,51
365,28	22165,82
365,49	22619,08
365,70	23094,53
365,91	22863,93
366,11	23215,53
366,32	23040,55
366,53	22630,71
366,74	22360,79
366,95	22635,22
367,16	22050,81
367,37	21870,42
367,58	21538,82
367,79	21633,35
368,00	20985,04
368,20	21183,78
368,41	21223,18
368,62	21709,04
368,83	22149,36
369,04	22429,03
369,25	22886,30
369,46	23103,05
369,67	22769,32
369,88	22411,41
370,08	21618,60
370,29	21320,09
370,50	21089,00
370,71	21603,53
370,92	21574,70
371,13	21818,08
371,34	21116,77
371,55	20790,24
371,75	20155,54
371,96	19750,45
372,17	19352,81
372,38	19444,23
372,59	19003,27
372,80	18653,23
373,01	17596,48
373,22	17210,23
373,42	17269,21
373,63	17091,36
373,84	16909,34
374,05	17047,05
374,26	16750,50
374,47	17253,40
374,68	17333,68
374,88	18038,59
375,09	18632,58
375,30	19152,69
375,51	19267,95
375,72	19450,38
375,93	18778,07
376,14	19322,67
376,34	19400,16
376,55	20130,14
376,76	20393,02
376,97	21309,28
377,18	21628,52
377,39	22567,39
377,59	22693,71
377,80	23224,62
378,01	22338,67
378,22	22162,30
378,43	21199,34
378,64	20631,40
378,85	19426,95
379,05	19047,99
379,26	18769,55
379,47	18847,05
379,68	18711,14
379,89	19415,97
380,10	19700,64
380,30	20320,68
380,51	20352,96
380,72	19997,10
380,93	19088,46
381,14	18423,04
381,34	17458,28
381,55	16574,29
381,76	15649,27
381,97	15080,26
382,18	14342,50
382,39	13958,46
382,59	13211,69
382,80	13094,79
383,01	12925,22
383,22	13189,98
383,43	13395,68
383,63	14305,96
383,84	14872,51
384,05	15785,42
384,26	16599,52
384,47	17414,45
384,68	17389,88
384,88	17636,29
385,09	17217,36
385,30	17062,12
385,51	16937,11
385,72	17014,77
385,92	17057,61
386,13	17245,13
386,34	17186,39
386,55	17571,98
386,76	17221,12
386,96	17312,71
387,17	17223,66
387,38	17328,93
387,59	17304,68
387,79	17490,80
388,00	16940,55
388,21	17270,77
388,42	17627,28
388,63	18290,82
388,83	18696,56
389,04	19759,21
389,25	20017,91
389,46	20701,69
389,67	20870,11
389,87	21084,82
390,08	21000,85
390,29	21224,25
390,50	21642,69
390,70	22231,44
390,91	22175,00
391,12	22369,31
391,33	21761,55
391,53	21468,36
391,74	20189,53
391,95	19376,08
392,16	17576,08
392,37	16231,38
392,57	14484,79
392,78	13319,25
392,99	12384,15
393,20	12492,94
393,40	12779,65
393,61	14167,68
393,82	15472,24
394,03	17011,17
394,23	18133,45
394,44	19613,15
394,65	20550,30
394,86	21304,28
395,06	21067,78
395,27	21666,61
395,48	20359,84
395,69	19593,08
395,89	17819,38
396,10	16097,36
396,31	14971,47
396,52	14407,38
396,72	14439,49
396,93	15629,93
397,14	16896,32
397,35	19473,97
397,55	21017,07
397,76	22849,43
397,97	23935,92
398,18	25324,61
398,38	25689,80
398,59	26594,02
398,80	26738,03
399,00	27495,70
399,21	27760,71
399,42	28262,87
399,63	27414,85
399,83	27882,77
400,04	28374,44
400,25	29093,69
400,46	28621,67
400,66	28881,11
400,87	29298,16
401,08	29868,31
401,28	29627,72
401,49	30133,65
401,70	29757,15
401,91	30300,93
402,11	30202,79
402,32	30150,52
402,53	29659,91
402,73	29225,50
402,94	28970,24
403,15	29806,63
403,35	29086,15
403,56	29614,69
403,77	28952,95
403,98	29308,24
404,18	28546,72
404,39	29255,40
404,60	28428,35
404,80	28855,80
405,01	28729,32
405,22	29102,62
405,42	28228,96
405,63	28466,44
405,84	27866,87
406,05	28420,81
406,25	27889,48
406,46	28236,00
406,67	28004,74
406,87	28715,14
407,08	28221,42
407,29	28760,20
407,49	28405,24
407,70	29188,47
407,91	29153,74
408,11	29819,00
408,32	30078,52
408,53	30895,49
408,73	30190,66
408,94	30484,75
409,15	29709,39
409,35	29083,04
409,56	27804,86
409,77	27894,81
409,97	27323,26
410,18	27976,40
410,39	28298,59
410,59	29303,57
410,80	29551,12
411,01	31246,60
411,21	30873,46
411,42	31463,19
411,63	31327,86
411,83	31725,41
412,04	31116,76
412,25	31379,30
412,45	30248,74
412,66	30365,81
412,87	30179,69
413,07	30545,21
413,28	30396,36
413,49	30680,62
413,69	30191,24
413,90	30907,86
414,11	30115,54
414,31	30506,95
414,52	29943,02
414,72	30113,25
414,93	30306,33
415,14	30320,01
415,34	30420,86
415,55	30710,60
415,76	30985,69
415,96	31364,97
416,17	30827,83
416,38	30784,82
416,58	30331,81
416,79	30011,59
416,99	29218,86
417,20	29346,65
417,41	29018,90
417,61	29024,55
417,82	28601,11
418,03	29127,44
418,23	28865,05
418,44	28811,56
418,64	28728,09
418,85	28962,46
419,06	28483,31
419,26	28724,40
419,47	28342,66
419,67	28305,63
419,88	28261,72
420,09	28868,66
420,29	28850,72
420,50	29991,36
420,71	29714,14
420,91	29730,28
421,12	29287,92
421,32	29703,33
421,53	29142,19
421,74	28771,59
421,94	28017,61
422,15	27835,01
422,35	27325,15
422,56	27914,06
422,77	27267,64
422,97	27322,85
423,18	27194,81
423,38	28261,15
423,59	27608,91
423,80	28029,16
424,00	27718,44
424,21	28302,19
424,41	27314,50
424,62	27901,03
424,82	26946,11
425,03	27858,03
425,24	27881,62
425,44	27763,58
425,65	27494,96
425,85	28369,77
426,06	27833,45
426,26	27881,78
426,47	26892,78
426,68	26901,63
426,88	26192,13
427,09	26609,59
427,29	26388,81
427,50	26869,68
427,70	26764,00
427,91	26143,96
428,12	26345,64
428,32	26286,50
428,53	25575,44
428,73	25520,97
428,94	25295,36
429,14	24258,35
429,35	23845,32
429,56	23168,67
429,76	22205,88
429,97	21457,14
430,17	20808,67
430,38	20944,33
430,58	21583,95
430,79	22772,43
430,99	23631,92
431,20	25515,97
431,40	26108,98
431,61	27372,09
431,82	27963,95
432,02	27542,64
432,23	28087,65
432,43	28560,40
432,64	27620,95
432,84	28557,94
433,05	28428,51
433,25	27907,18
433,46	27719,42
433,66	27418,37
433,87	26901,63
434,07	27157,54
434,28	27655,11
434,49	28228,63
434,69	28168,25
434,90	28550,49
435,10	28995,63
435,31	30042,55
435,51	29367,13
435,72	30303,30
435,92	29846,28
436,13	30941,12
436,33	30476,31
436,54	30958,65
436,74	30586,09
436,95	30637,28
437,15	29595,77
437,36	29582,42
437,56	28458,74
437,77	27981,89
437,97	27624,07
438,18	27793,07
438,38	27502,99
438,59	28259,18
438,79	27734,74
439,00	28909,54
439,20	28902,16
439,41	29168,97
439,61	29027,42
439,82	29656,23
440,02	28992,03
440,23	29066,41
440,43	29605,35
440,64	30080,89
440,84	30444,61
441,05	31093,57
441,25	31006,25
441,46	31434,27
441,66	31551,99
441,87	32107,97
442,07	31566,73
442,28	31654,39
442,48	30927,11
442,69	31612,20
442,89	31836,08
443,10	31326,06
443,30	30759,51
443,51	31389,22
443,71	31319,42
443,92	31346,54
444,12	31695,92
444,32	31774,56
444,53	31440,42
444,73	31440,74
444,94	30115,05
445,14	30524,89
445,35	29753,14
445,55	29770,17
445,76	29395,72
445,96	30425,69
446,17	30072,29
446,37	30947,76
446,58	30806,20
446,78	31625,80
446,98	30970,53
447,19	31586,97
447,39	31410,27
447,60	32351,43
447,80	31115,53
448,01	31422,48
448,21	31627,44
448,42	31392,58
448,62	31490,22
448,82	31598,60
449,03	31297,06
449,23	31210,72
449,44	31823,55
449,64	32973,20
449,85	32469,89
450,05	32459,81
450,26	32975,74
450,46	32719,09
450,66	33078,30
450,87	33151,45
451,07	32893,33
451,28	32725,64
451,48	31619,82
451,69	32152,37
451,89	31359,48
452,09	30999,94
452,30	30605,91
452,50	29984,23
452,71	30073,27
452,91	30524,07
453,12	30631,55
453,32	30467,79
453,52	30716,66
453,73	31286,57
453,93	31423,70
454,14	30741,16
454,34	30741,08
454,54	30772,45
454,75	30792,11
454,95	30969,63
455,16	30959,39
455,36	31133,96
455,56	30707,16
455,77	32394,28
455,97	31664,79
456,18	31762,93
456,38	32208,49
456,58	32149,50
456,79	31672,25
456,99	32343,24
457,20	32340,95
457,40	31974,20
457,60	31731,23
457,81	32332,92
458,01	31408,06
458,22	31313,03
458,42	31494,56
458,62	31662,74
458,83	31370,62
459,03	31715,50
459,23	31339,66
459,44	31397,33
459,64	31222,18
459,85	31678,72
460,05	31368,74
460,25	31249,46
460,46	31182,86
460,66	31972,56
460,86	32132,14
461,07	32476,52
461,27	32467,19
461,48	32097,98
461,68	32542,22
461,88	32824,19
462,09	32853,68
462,29	33004,49
462,49	33232,23
462,70	32723,43
462,90	33338,15
463,10	32719,74
463,31	32675,59
463,51	32626,76
463,72	33012,44
463,92	32378,55
464,12	32057,18
464,33	32146,64
464,53	32613,25
464,73	32590,06
464,94	32729,00
465,14	33032,92
465,34	32363,80
465,55	33151,13
465,75	33227,31
465,95	32407,39
466,16	32671,49
466,36	33014,65
466,56	31809,13
466,77	32613,90
466,97	33453,82
467,17	33652,39
467,38	33073,14
467,58	33386,97
467,78	33193,72
467,99	33984,57
468,19	34220,25
468,39	35459,10
468,60	34240,73
468,80	35171,32
469,00	34587,65
469,21	34886,08
469,41	34726,26
469,61	34846,43
469,82	34785,57
470,02	34976,85
470,22	34385,72
470,42	35214,99
470,63	35408,48
470,83	36171,14
471,03	36673,80
471,24	37184,56
471,44	37532,47
471,64	38393,76
471,85	37915,68
472,05	39738,21
472,25	39646,14
472,46	38721,03
472,66	39373,67
472,86	39593,38
473,06	39863,96
473,27	40416,01
473,47	40335,15
473,67	41085,53
473,88	41167,45
474,08	41665,35
474,28	41795,85
474,48	42576,78
474,69	42710,39
474,89	42764,05
475,09	42710,22
475,30	42856,78
475,50	43291,27
475,70	43451,83
475,90	43652,21
476,11	43089,43
476,31	42917,97
476,51	44559,05
476,72	45745,07
476,92	45112,57
477,12	45681,50
477,32	47197,24
477,53	46915,36
477,73	47786,57
477,93	47864,47
478,13	48397,93
478,34	47232,88
478,54	49279,86
478,74	49046,07
478,94	48859,37
479,15	49363,91
479,35	49480,56
479,55	49389,22
479,75	50833,37
479,96	50833,70
480,16	50471,37
480,36	50687,14
480,57	51857,44
480,77	51874,72
480,97	52168,07
481,17	51341,84
481,37	53024,45
481,58	52387,12
481,78	52771,08
481,98	53290,93
482,18	53003,07
482,39	53273,32
482,59	53258,82
482,79	53152,98
482,99	53222,28
483,20	53083,51
483,40	53461,49
483,60	53763,19
483,80	53700,85
484,01	53318,21
484,21	53694,55
484,41	53323,37
484,61	52944,42
484,81	52406,29
485,02	51979,82
485,22	50238,56
485,42	49252,42
485,62	48072,46
485,83	47592,34
486,03	47372,71
486,23	47343,71
486,43	48019,71
486,63	49240,87
486,84	49888,68
487,04	50705,25
487,24	51445,14
487,44	51862,68
487,64	52366,32
487,85	53158,39
488,05	53085,23
488,25	53776,63
488,45	52741,50
488,65	53695,04
488,86	53430,36
489,06	54197,44
489,26	54274,12
489,46	55339,97
489,66	55822,39
489,87	55867,03
490,07	55873,17
490,27	55646,59
490,47	55718,35
490,67	55378,22
490,88	55387,97
491,08	54721,23
491,28	54803,07
491,48	54018,29
491,68	53799,98
491,88	54146,33
492,09	53666,28
492,29	54166,40
492,49	54147,64
492,69	55099,94
492,89	54757,52
493,09	54869,83
493,30	55012,86
493,50	55162,69
493,70	55003,36
493,90	55922,41
494,10	55512,57
494,30	56081,41
494,51	56175,70
494,71	56181,52
494,91	56005,23
495,11	55973,77
495,31	55436,88
495,51	55473,25
495,72	55229,29
495,92	55111,74
496,12	55542,71
496,32	55376,58
496,52	55712,61
496,72	55568,19
496,92	55461,70
497,13	55023,27
497,33	55119,93
497,53	54599,75
497,73	53921,05
497,93	54099,31
498,13	53554,96
498,33	53557,50
498,54	53478,94
498,74	53554,79
498,94	53863,46
499,14	53557,09
499,34	53836,84
499,54	53319,77
499,74	52906,98
499,94	52860,29
500,15	52224,43
500,35	51986,87
500,55	51194,88
500,75	51504,86
500,95	50738,75
501,15	51106,49
501,35	50655,20
501,55	50818,54
501,76	50655,52
501,96	51058,81
502,16	51015,64
502,36	51475,20
502,56	51333,24
502,76	51582,27
502,96	51883,98
503,16	51356,83
503,36	50986,80
503,57	51233,95
503,77	51004,83
503,97	50888,01
504,17	51110,09
504,37	51213,23
504,57	51465,45
504,77	51916,25
504,97	52075,01
505,17	52504,76
505,37	52594,70
505,57	53186,49
505,78	52988,08
505,98	53590,92
506,18	53225,97
506,38	53305,92
506,58	52786,64
506,78	53002,99
506,98	52383,11
507,18	52246,30
507,38	52030,61
507,58	52133,99
507,78	51949,10
507,98	52604,86
508,19	52166,52
508,39	52874,05
508,59	53258,25
508,79	53550,12
508,99	53551,19
509,19	53940,71
509,39	53383,75
509,59	53485,65
509,79	53584,28
509,99	53810,30
510,19	53959,31
510,39	53824,31
510,59	53934,73
510,79	54690,02
510,99	54437,39
511,19	54571,16
511,39	55157,37
511,60	55309,90
511,80	54469,01
512,00	55174,57
512,20	54667,41
512,40	54681,26
512,60	54323,68
512,80	54072,36
513,00	54456,80
513,20	54232,34
513,40	53973,97
513,60	54323,68
513,80	53700,44
514,00	54079,07
514,20	53961,19
514,40	54386,51
514,60	54369,72
514,80	54880,98
515,00	54815,85
515,20	54849,85
515,40	55057,02
515,60	54452,38
515,80	53710,52
516,00	53325,75
516,20	52068,54
516,40	51134,42
516,60	50521,10
516,80	50066,45
517,00	49618,19
517,20	49926,37
517,40	50035,97
517,60	50563,86
517,80	50536,09
518,00	50662,57
518,20	51064,46
518,40	51403,61
518,60	51535,33
518,80	51867,18
519,00	52455,52
519,20	53259,88
519,40	53547,75
519,60	54035,00
519,80	53978,64
520,00	54336,79
520,20	54056,71
520,40	54611,30
520,60	54180,41
520,80	54770,71
521,00	54233,57
521,20	55096,26
521,40	54589,34
521,60	54663,89
521,80	54702,88
522,00	54366,61
522,20	53916,96
522,40	53728,54
522,60	53191,16
522,80	53373,01
523,00	53324,93
523,20	53692,74
523,40	53376,29
523,60	54284,36
523,80	54418,30
524,00	54409,04
524,20	54507,67
524,40	54304,02
524,60	54174,92
524,80	54125,52
525,00	53559,71
525,20	53747,38
525,40	52801,71
525,60	52592,82
525,80	51575,06
526,00	51180,38
526,20	50092,99
526,40	48893,62
526,60	48769,34
526,79	48978,73
526,99	48293,72
527,19	49214,74
527,39	48833,08
527,59	49921,70
527,79	49882,37
527,99	50858,35
528,19	50809,94
528,39	51595,87
528,59	51298,50
528,79	51569,49
528,99	51310,22
529,19	51700,32
529,39	51139,17
529,59	51122,05
529,79	51013,02
529,98	51073,15
530,18	50939,95
530,38	51414,01
530,58	50811,25
530,78	51366,01
530,98	51131,88
531,18	50859,01
531,38	50452,86
531,58	50198,09
531,78	49105,87
531,98	49209,58
532,18	48433,31
532,37	47917,39
532,57	47633,79
532,77	47568,01
532,97	47489,28
533,17	47616,50
533,37	47298,41
533,57	47732,99
533,77	47903,14
533,97	47587,09
534,17	47794,59
534,37	47942,70
534,56	47809,42
534,76	48421,85
534,96	48050,67
535,16	48429,63
535,36	48501,22
535,56	48543,17
535,76	48121,04
535,96	47976,29
536,16	47592,75
536,35	47178,73
536,55	46907,50
536,75	46500,61
536,95	46525,51
537,15	46548,94
537,35	46388,54
537,55	46762,01
537,75	46469,89
537,94	46837,13
538,14	46671,82
538,34	46750,54
538,54	46290,81
538,74	45705,67
538,94	45652,66
539,14	45245,94
539,34	44629,91
539,53	44639,33
539,73	44133,81
539,93	44119,31
540,13	43379,09
540,33	43570,04
540,53	43402,11
540,73	43690,38
540,92	43288,57
541,12	44134,55
541,32	43466,91
541,52	44191,40
541,72	43938,51
541,92	44125,13
542,11	43699,88
542,31	43767,55
542,51	43529,17
542,71	43493,70
542,91	43364,59
543,11	43606,33
543,30	43546,29
543,50	43719,95
543,70	43579,14
543,90	43636,81
544,10	43463,47
544,30	43685,39
544,49	43577,33
544,69	43498,53
544,89	43228,03
545,09	43276,20
545,29	43154,80
545,49	43186,25
545,68	43121,54
545,88	43035,36
546,08	42821,22
546,28	42672,79
546,48	42751,43
546,67	42690,97
546,87	42463,98
547,07	42380,91
547,27	41895,38
547,47	42149,82
547,67	41653,55
547,86	41755,87
548,06	41615,54
548,26	42147,36
548,46	41511,75
548,66	42032,76
548,85	41717,78
549,05	41856,55
549,25	41998,10
549,45	41920,20
549,65	41674,77
549,84	41869,25
550,04	41304,33
550,24	41345,05
550,44	41333,42
550,63	41221,84
550,83	41289,43
551,03	41401,33
551,23	40987,23
551,43	41394,77
551,62	41003,28
551,82	41011,39
552,02	40853,37
552,22	40893,02
552,41	40768,67
552,61	40508,66
552,81	40517,91
553,01	40607,29
553,21	40352,28
553,40	40287,48
553,60	40272,16
553,80	40966,99
554,00	40421,66
554,19	40834,29
554,39	40589,10
554,59	40561,82
554,79	40468,85
554,98	40534,05
555,18	40363,83
555,38	40295,10
555,58	39992,82
555,77	40181,31
555,97	39744,44
556,17	39533,82
556,37	38787,14
556,56	39200,25
556,76	38691,04
556,96	38888,88
557,16	38404,00
557,35	38784,76
557,55	38252,78
557,75	38511,40
557,95	37996,21
558,14	38001,13
558,34	37603,00
558,54	37542,46
558,73	37293,51
558,93	37304,00
559,13	37198,98
559,33	36874,25
559,52	36895,22
559,72	36792,50
559,92	36963,21
560,12	37086,26
560,31	37477,75
560,51	37442,19
560,71	37309,16
560,90	37258,94
561,10	37211,76
561,30	37047,10
561,50	36991,31
561,69	37102,48
561,89	36791,10
562,09	36816,99
562,28	36422,71
562,48	36952,24
562,68	36538,71
562,87	36584,26
563,07	36268,87
563,27	36652,58
563,47	35758,35
563,66	36315,65
563,86	35841,42
564,06	35930,06
564,25	35616,72
564,45	35844,37
564,65	35592,14
564,84	35395,95
565,04	35260,62
565,24	35084,90
565,43	34717,90
565,63	34713,48
565,83	34483,21
566,02	34231,63
566,22	34508,85
566,42	34420,37
566,61	34132,35
566,81	34437,00
567,01	34546,37
567,20	34612,39
567,40	34191,08
567,60	34003,65
567,79	34059,52
567,99	33788,70
568,19	33495,92
568,38	33519,02
568,58	32951,74
568,78	33279,66
568,97	33002,12
569,17	32950,83
569,37	32853,68
569,56	32742,11
569,76	32738,83
569,96	32528,87
570,15	32013,36
570,35	32034,08
570,55	31679,13
570,74	31532,66
570,94	31521,93
571,13	31381,19
571,33	31250,77
571,53	31651,11
571,72	31623,59
571,92	31513,82
572,12	31807,41
572,31	31948,89
572,51	31822,16
572,71	31720,09
572,90	31829,20
573,10	31643,57
573,29	31633,33
573,49	31587,62
573,69	31273,22
573,88	31175,65
574,08	31167,46
574,28	30969,06
574,47	30724,77
574,67	30660,39
574,86	30440,52
575,06	30523,42
575,26	30009,71
575,45	29964,90
575,65	29760,51
575,84	29919,59
576,04	29767,23
576,24	29984,06
576,43	29753,05
576,63	29853,40
576,82	29521,80
577,02	29596,18
577,22	29521,80
577,41	29401,46
577,61	29415,63
577,80	29096,72
578,00	28938,70
578,20	29069,28
578,39	28938,70
578,59	28790,26
578,78	28895,36
578,98	28990,88
579,17	28709,33
579,37	29151,11
579,57	29020,04
579,76	29267,11
579,96	29253,84
580,15	29082,22
580,35	29101,96
580,55	29196,91
580,74	29120,72
580,94	29416,61
581,13	29159,39
581,33	29229,35
581,52	29170,12
581,72	29359,35
581,91	29321,18
582,11	29601,26
582,31	29290,95
582,50	29737,08
582,70	29623,29
582,89	29569,06
583,09	29538,26
583,28	29422,76
583,48	29335,35
583,67	29507,63
583,87	29277,68
584,07	29375,08
584,26	29133,01
584,46	29128,34
584,65	28905,19
584,85	28811,56
585,04	28534,18
585,24	28528,70
585,43	28191,85
585,63	28311,61
585,82	28348,31
586,02	28155,23
586,21	28131,31
586,41	28051,93
586,61	28235,18
586,80	28304,89
587,00	28066,59
587,19	28344,13
587,39	27788,40
587,58	27965,91
587,78	27396,50
587,97	27409,19
588,17	26902,94
588,36	26807,34
588,56	26058,52
588,75	25739,04
588,95	25351,15
589,14	25119,48
589,34	24863,08
589,53	25026,92
589,73	25121,29
589,92	25365,90
590,12	25539,48
590,31	25693,24
590,51	25970,78
590,70	25878,79
590,90	25950,06
591,09	26284,04
591,29	26038,86
591,48	26142,24
591,68	26223,50
591,87	25953,99
592,07	25922,78
592,26	26083,75
592,46	26141,75
592,65	25911,56
592,85	25850,85
593,04	25990,12
593,24	25883,95
593,43	25944,16
593,63	25639,91
593,82	25701,68
594,01	25626,56
594,21	25614,85
594,40	25458,55
594,60	25619,27
594,79	25359,51
594,99	25452,97
595,18	25329,61
595,38	25421,93
595,57	25439,54
595,77	25449,45
595,96	25301,10
596,16	25473,78
596,35	25419,88
596,54	25443,96
596,74	25268,58
596,93	25197,39
597,13	25206,65
597,32	25010,53
597,52	24930,99
597,71	24890,11
597,91	24658,44
598,10	24790,58
598,29	24620,11
598,49	24736,60
598,68	24721,03
598,88	24716,12
599,07	24511,07
599,27	24723,08
599,46	24567,02
599,65	24617,16
599,85	24338,88
600,04	24423,34
600,24	24125,15
600,43	24298,66
600,63	24139,90
600,82	24128,02
601,01	23905,53
601,21	24183,89
601,40	23747,84
601,60	23844,34
601,79	23740,71
601,99	23802,48
602,18	23523,13
602,37	23870,06
602,57	23719,66
602,76	23897,75
602,96	23815,91
603,15	24063,39
603,34	23870,47
603,54	24169,80
603,73	24123,35
603,93	24164,72
604,12	23987,86
604,31	24198,23
604,51	23915,85
604,70	24125,15
604,90	23796,99
605,09	23933,22
605,28	23751,03
605,48	23643,72
605,67	23592,44
605,86	23583,67
606,06	23582,20
606,25	23604,81
606,45	23512,73
606,64	23536,08
606,83	23349,47
607,03	23529,60
607,22	23473,00
607,41	23304,57
607,61	23146,31
607,80	23277,87
608,00	23022,45
608,19	23062,91
608,38	22895,80
608,58	22973,46
608,77	22856,40
608,96	22871,80
609,16	22628,74
609,35	22625,88
609,54	22505,95
609,74	22508,90
609,93	22490,71
610,12	22252,00
610,32	22489,89
610,51	22350,47
610,71	22181,88
610,90	22316,14
611,09	22125,27
611,29	22197,44
611,48	22053,35
611,67	21947,26
611,87	21929,40
612,06	21869,28
612,25	21766,22
612,45	21724,28
612,64	21596,08
612,83	21481,88
613,03	21426,18
613,22	21391,28
613,41	21341,96
613,61	21259,31
613,80	21300,60
613,99	21203,77
614,18	21132,17
614,38	21228,34
614,57	21130,29
614,76	21157,32
614,96	21099,89
615,15	21095,06
615,34	20952,60
615,54	20774,92
615,73	20699,31
615,92	20690,63
616,12	20460,76
616,31	20654,17
616,50	20358,28
616,69	20507,87
616,89	20456,34
617,08	20562,84
617,27	20680,06
617,47	20831,36
617,66	20857,66
617,85	21001,35
618,05	20994,30
618,24	21071,47
618,43	21125,62
618,62	21219,82
618,82	21109,64
619,01	21327,63
619,20	21410,28
619,40	21356,87
619,59	21510,31
619,78	21600,91
619,97	21462,71
620,17	21630,32
620,36	21740,50
620,55	21758,85
620,74	21636,87
620,94	21725,51
621,13	21831,02
621,32	21770,32
621,51	21575,11
621,71	21870,42
621,90	21697,82
622,09	21901,96
622,29	21620,16
622,48	21675,95
622,67	21801,77
622,86	21799,07
623,06	21921,79
623,25	21732,72
623,44	21525,13
623,63	21773,84
623,83	21784,49
624,02	21654,16
624,21	21500,64
624,40	21615,16
624,59	21541,76
624,79	21504,33
624,98	21444,94
625,17	21618,93
625,36	21394,97
625,56	21611,97
625,75	21302,23
625,94	21497,28
626,13	21576,42
626,33	21515,80
626,52	21476,64
626,71	21589,28
626,90	21303,71
627,09	21174,69
627,29	20761,00
627,48	20865,03
627,67	20617,15
627,86	20469,61
628,05	20395,48
628,25	20447,33
628,44	20296,35
628,63	20441,84
628,82	20184,21
629,02	20276,61
629,21	20137,02
629,40	20043,96
629,59	20095,98
629,78	20088,20
629,98	20014,96
630,17	20014,47
630,36	19919,77
630,55	20075,34
630,74	19818,60
630,93	20064,77
631,13	19888,97
631,32	19894,87
631,51	19939,02
631,70	19826,55
631,89	19877,09
632,09	19672,21
632,28	19813,03
632,47	19951,23
632,66	19688,60
632,85	19906,50
633,04	19675,41
633,24	19710,96
633,43	19684,09
633,62	19596,11
633,81	19655,91
634,00	19537,54
634,19	19569,41
634,39	19431,54
634,58	19503,38
634,77	19524,76
634,96	19430,72
635,15	19377,31
635,34	19395,33
635,54	19393,44
635,73	19209,13
635,92	19266,14
636,11	19287,61
636,30	19184,88
636,49	19209,95
636,68	19088,13
636,88	19148,92
637,07	19154,32
637,26	19085,68
637,45	19040,70
637,64	19080,43
637,83	19055,37
638,02	19027,27
638,21	19059,38
638,41	19098,87
638,60	18849,01
638,79	18804,12
638,98	18932,49
639,17	18710,49
639,36	18557,71
639,55	18566,97
639,74	18347,18
639,94	18373,80
640,13	18311,38
640,32	18249,78
640,51	18205,30
640,70	18236,42
640,89	18162,21
641,08	17881,88
641,27	17995,50
641,46	17874,26
641,66	18077,01
641,85	17856,40
642,04	17849,85
642,23	17854,03
642,42	17897,12
642,61	17834,94
642,80	17858,04
642,99	17735,00
643,18	17779,24
643,37	17727,46
643,56	17561,25
643,76	17540,69
643,95	17609,99
644,14	17475,40
644,33	17540,12
644,52	17513,74
644,71	17343,76
644,90	17330,40
645,09	17293,05
645,28	17027,80
645,47	17093,66
645,66	17040,57
645,85	16987,90
646,04	16791,79
646,24	16774,26
646,43	16597,80
646,62	16756,15
646,81	16531,70
647,00	16631,31
647,19	16513,51
647,38	16382,44
647,57	16360,32
647,76	16326,65
647,95	16267,83
648,14	16352,87
648,33	16107,36
648,52	16103,18
648,71	16031,17
648,90	15844,40
649,09	15729,63
649,28	15769,61
649,47	15767,23
649,66	15789,35
649,85	15707,92
650,05	15781,32
650,24	15753,47
650,43	15913,62
650,62	15869,30
650,81	15877,41
651,00	15897,23
651,19	15815,23
651,38	15807,70
651,57	15827,77
651,76	15739,46
651,95	15740,93
652,14	15683,10
652,33	15615,02
652,52	15689,90
652,71	15633,13
652,90	15608,39
653,09	15672,86
653,28	15590,61
653,47	15646,32
653,66	15515,08
653,85	15622,81
654,04	15359,11
654,23	15398,84
654,42	15268,92
654,61	15272,60
654,80	14948,04
654,99	14742,02
655,18	14536,32
655,37	14339,63
655,56	13946,42
655,75	13762,60
655,94	13468,75
656,13	13325,40
656,32	13276,08
656,51	13199,32
656,70	13360,37
656,89	13367,34
657,08	13569,76
657,27	13667,73
657,46	13944,37
657,65	14131,64
657,84	14283,76
658,03	14410,49
658,22	14394,93
658,40	14467,67
658,59	14486,84
658,78	14499,54
658,97	14551,06
659,16	14727,27
659,35	14563,52
659,54	14551,72
659,73	14585,80
659,92	14622,25
660,11	14660,83
660,30	14598,49
660,49	14615,04
660,68	14699,50
660,87	14629,38
661,06	14682,79
661,25	14641,34
661,44	14588,58
661,63	14599,64
661,82	14615,78
662,01	14593,99
662,19	14584,16
662,38	14577,85
662,57	14585,88
662,76	14437,03
662,95	14434,25
663,14	14335,04
663,33	14285,81
663,52	14212,82
663,71	14280,32
663,90	14211,92
664,09	14195,13
664,28	14174,24
664,47	14215,52
664,65	14184,64
664,84	14264,51
665,03	14129,92
665,22	14226,09
665,41	14153,18
665,60	14133,77
665,79	14127,05
665,98	14130,90
666,17	14076,51
666,36	14052,10
666,55	14054,39
666,73	13945,11
666,92	14024,24
667,11	14005,73
667,30	13762,19
667,49	13901,04
667,68	13816,09
667,87	13899,07
668,06	13759,73
668,25	13893,75
668,43	13816,66
668,62	13806,59
668,81	13735,89
669,00	13759,89
669,19	13714,92
669,38	13819,04
669,57	13652,42
669,76	13644,22
669,94	13606,54
670,13	13633,82
670,32	13450,32
670,51	13521,84
670,70	13493,00
670,89	13442,29
671,08	13420,50
671,26	13371,84
671,45	13362,42
671,64	13248,15
671,83	13282,39
672,02	13192,52
672,21	13233,97
672,40	13174,50
672,58	13175,73
672,77	13163,28
672,96	13102,25
673,15	13240,36
673,34	13163,11
673,53	13098,73
673,71	13085,13
673,90	13135,43
674,09	13046,87
674,28	13104,71
674,47	13043,59
674,66	12968,31
674,84	12926,45
675,03	12965,94
675,22	12882,13
675,41	12950,37
675,60	12849,69
675,79	12819,96
675,97	12814,80
676,16	12809,63
676,35	12709,53
676,54	12811,76
676,73	12737,46
676,91	12748,77
677,10	12670,05
677,29	12711,74
677,48	12645,88
677,67	12629,41
677,86	12566,83
678,04	12549,13
678,23	12531,28
678,42	12559,78
678,61	12510,71
678,80	12475,08
678,98	12487,53
679,17	12421,50
679,36	12383,41
679,55	12391,03
679,73	12337,86
679,92	12367,68
680,11	12172,96
680,30	12279,46
680,49	12188,04
680,67	12224,90
680,86	12158,22
681,05	12130,04
681,24	12218,67
681,42	12021,82
681,61	12127,91
681,80	12012,16
681,99	12146,99
682,18	11925,16
682,36	12030,01
682,55	11927,53
682,74	11919,92
682,93	11873,88
683,11	11853,32
683,30	11791,14
683,49	11730,19
683,68	11691,77
683,86	11558,16
684,05	11710,86
684,24	11486,97
684,43	11510,65
684,61	11409,15
684,80	11430,29
684,99	11424,80
685,18	11387,61
685,36	11363,85
685,55	11259,57
685,74	11079,84
685,93	10810,74
686,11	10513,45
686,30	10051,18
686,49	9582,77
686,67	9058,90
686,86	8634,15
687,05	8323,76
687,24	8086,94
687,42	7973,56
687,61	7934,65
687,80	7935,55
687,99	8009,36
688,17	8054,58
688,36	8120,69
688,55	8190,24
688,73	8160,83
688,92	8248,32
689,11	8193,43
689,29	8295,09
689,48	8341,95
689,67	8430,50
689,86	8466,14
690,04	8504,80
690,23	8636,12
690,42	8805,86
690,60	8782,10
690,79	8896,38
690,98	9005,00
691,16	9109,53
691,35	9180,96
691,54	9247,64
691,72	9334,23
691,91	9478,33
692,10	9401,32
692,29	9469,89
692,47	9473,58
692,66	9554,92
692,85	9527,15
693,03	9570,81
693,22	9544,60
693,41	9494,47
693,59	9507,82
693,78	9471,36
693,97	9453,92
694,15	9483,00
694,34	9444,99
694,53	9473,82
694,71	9403,62
694,90	9466,28
695,09	9446,46
695,27	9480,29
695,46	9475,95
695,64	9445,15
695,83	9489,47
696,02	9439,83
696,20	9554,02
696,39	9589,65
696,58	9676,41
696,76	9664,77
696,95	9635,53
697,14	9620,29
697,32	9668,21
697,51	9569,67
697,70	9571,14
697,88	9543,86
698,07	9441,55
698,25	9487,67
698,44	9385,68
698,63	9387,97
698,81	9301,46
699,00	9242,48
699,19	9269,11
699,37	9229,79
699,56	9131,73
699,74	9071,68
699,93	9020,65
700,12	8976,74
700,30	9032,77
700,49	8936,84
700,67	8984,93
700,86	8867,79
701,05	8892,44
701,23	8847,72
701,42	8797,99
701,60	8855,58
701,79	8709,85
701,98	8704,44
702,16	8735,16
702,35	8689,04
702,53	8681,34
702,72	8761,78
702,91	8784,88
703,09	8712,96
703,28	8736,72
703,46	8724,18
703,65	8814,05
703,83	8708,37
704,02	8715,42
704,21	8733,11
704,39	8739,99
704,58	8722,54
704,76	8691,01
704,95	8649,96
705,13	8709,44
705,32	8631,53
705,51	8630,96
705,69	8681,91
705,88	8570,42
706,06	8541,67
706,25	8549,94
706,43	8538,96
706,62	8500,05
706,80	8518,16
706,99	8525,45
707,18	8501,53
707,36	8507,10
707,55	8458,68
707,73	8412,15
707,92	8431,57
708,10	8364,07
708,29	8440,01
708,47	8319,67
708,66	8375,95
708,84	8315,16
709,03	8276,42
709,21	8302,96
709,40	8212,85
709,59	8257,74
709,77	8216,94
709,96	8188,84
710,14	8228,74
710,33	8168,12
710,51	8169,35
710,70	8160,34
710,88	8139,20
711,07	8091,69
711,25	8037,54
711,44	8042,86
711,62	7970,94
711,81	8005,84
711,99	7949,15
712,18	7919,90
712,36	7888,12
712,55	7855,19
712,73	7827,83
712,92	7859,94
713,10	7824,72
713,29	7829,71
713,47	7767,95
713,66	7707,90
713,84	7715,27
714,03	7699,79
714,21	7664,56
714,40	7631,22
714,58	7561,26
714,77	7534,31
714,95	7460,34
715,14	7478,44
715,32	7361,87
715,51	7395,54
715,69	7305,27
715,87	7216,63
716,06	7115,22
716,24	7031,00
716,43	6910,67
716,61	6808,02
716,80	6623,79
716,98	6532,28
717,17	6337,64
717,35	6218,37
717,54	6158,57
717,72	6037,08
717,91	5894,22
718,09	5825,73
718,27	5733,33
718,46	5654,11
718,64	5540,00
718,83	5510,35
719,01	5470,29
719,20	5421,87
719,38	5392,06
719,57	5343,48
719,75	5339,46
719,93	5328,90
720,12	5324,64
720,30	5429,98
720,49	5477,01
720,67	5524,60
720,86	5658,62
721,04	5784,86
721,22	5864,81
721,41	5911,83
721,59	6010,54
721,78	6031,60
721,96	6078,54
722,14	6112,12
722,33	6098,20
722,51	6068,62
722,70	5912,65
722,88	5922,32
723,06	5818,12
723,25	5721,94
723,43	5627,82
723,62	5576,13
723,80	5530,25
723,98	5512,56
724,17	5462,10
724,35	5415,98
724,54	5360,35
724,72	5411,39
724,90	5362,32
725,09	5403,93
725,27	5297,93
725,46	5403,93
725,64	5346,59
725,82	5375,10
726,01	5359,21
726,19	5352,73
726,38	5366,01
726,56	5372,89
726,74	5374,36
726,93	5331,68
727,11	5317,43
727,29	5246,73
727,48	5259,68
727,66	5266,39
727,84	5306,94
728,03	5277,62
728,21	5249,44
728,40	5245,67
728,58	5204,13
728,76	5192,17
728,95	5220,19
729,13	5177,51
729,31	5239,11
729,50	5207,66
729,68	5242,06
729,86	5254,19
730,05	5201,19
730,23	5259,84
730,41	5178,99
730,60	5205,36
730,78	5216,18
730,96	5206,92
731,15	5218,14
731,33	5231,90
731,51	5317,26
731,70	5278,27
731,88	5346,43
732,06	5388,12
732,25	5407,05
732,43	5427,28
732,61	5466,03
732,80	5501,34
732,98	5527,06
733,16	5543,11
733,34	5595,05
733,53	5561,30
733,71	5611,11
733,89	5616,84
734,08	5618,32
734,26	5605,95
734,44	5587,19
734,63	5590,55
734,81	5538,12
734,99	5545,24
735,18	5529,35
735,36	5476,60
735,54	5489,29
735,72	5500,68
735,91	5441,62
736,09	5475,45
736,27	5393,94
736,46	5425,15
736,64	5429,82
736,82	5425,07
737,00	5404,26
737,19	5435,23
737,37	5396,73
737,55	5460,29
737,73	5357,98
737,92	5362,89
738,10	5356,26
738,28	5349,95
738,47	5306,45
738,65	5333,81
738,83	5265,57
739,01	5299,49
739,20	5238,70
739,38	5273,27
739,56	5265,57
739,74	5272,78
739,93	5225,68
740,11	5280,89
740,29	5260,33
740,47	5226,42
740,66	5217,24
740,84	5177,02
741,02	5189,06
741,20	5172,60
741,38	5149,49
741,57	5134,83
741,75	5176,77
741,93	5144,33
742,11	5140,97
742,30	5120,90
742,48	5143,76
742,66	5121,48
742,84	5116,56
743,03	5100,18
743,21	5151,71
743,39	5133,68
743,57	5083,39
743,75	5091,33
743,94	5071,43
744,12	5064,46
744,30	5032,35
744,48	5024,65
744,66	5041,28
744,85	4992,62
745,03	4968,54
745,21	4991,88
745,39	4980,25
745,57	4960,84
745,76	4967,39
745,94	4995,81
746,12	4989,92
746,30	4993,60
746,48	4917,17
746,67	4937,57
746,85	4978,20
747,03	4922,50
747,21	4938,06
747,39	4975,99
747,57	4927,09
747,76	4945,68
747,94	4920,20
748,12	4966,41
748,30	4896,20
748,48	4903,41
748,67	4947,73
748,85	4920,86
749,03	4952,56
749,21	4937,90
749,39	4902,43
749,57	4901,94
749,75	4967,63
749,94	4958,05
750,12	4959,36
750,30	4970,34
750,48	4954,20
750,66	4980,50
750,84	4974,93
751,03	4977,22
751,21	5016,95
751,39	5030,71
751,57	5068,07
751,75	5048,32
751,93	5090,92
752,11	5086,34
752,29	5108,94
752,48	5114,02
752,66	5158,42
752,84	5145,89
753,02	5195,45
753,20	5208,72
753,38	5247,80
753,56	5277,45
753,74	5273,68
753,93	5302,03
754,11	5277,62
754,29	5393,78
754,47	5315,71
754,65	5342,58
754,83	5369,86
755,01	5349,87
755,19	5341,76
755,37	5412,04
755,56	5422,61
755,74	5371,74
755,92	5427,12
756,10	5413,93
756,28	5432,20
756,46	5427,61
756,64	5440,14
756,82	5402,38
757,00	5429,17
757,18	5485,36
757,36	5432,93
757,55	5443,75
757,73	5427,69
757,91	5402,46
758,09	5397,95
758,27	5340,86
758,45	5213,39
758,63	5052,26
758,81	4758,00
758,99	4451,46
759,17	3961,02
759,35	3514,15
759,53	3074,16
759,71	2631,89
759,89	2206,24
760,08	1875,37
760,26	1551,70
760,44	1360,18
760,62	1199,62
760,80	1148,91
760,98	1167,67
761,16	1264,25
761,34	1372,47
761,52	1464,71
761,70	1525,82
761,88	1560,88
762,06	1550,15
762,24	1561,29
762,42	1506,81
762,60	1472,24
762,78	1426,62
762,96	1399,75
763,14	1397,12
763,32	1426,29
763,50	1421,04
763,68	1468,07
763,86	1527,05
764,04	1595,78
764,22	1714,23
764,40	1805,00
764,58	1894,70
764,76	2027,65
764,94	2133,90
765,12	2253,18
765,30	2347,79
765,48	2460,43
765,66	2605,43
765,84	2749,19
766,02	2843,89
766,20	2962,10
766,38	3087,44
766,56	3231,53
766,74	3314,27
766,92	3434,44
767,10	3545,85
767,28	3614,99
767,46	3702,81
767,64	3729,02
767,82	3806,19
768,00	3863,86
768,18	3840,51
768,36	3912,11
768,54	3919,73
768,72	3950,53
768,90	3954,22
769,08	3951,92
769,26	3928,09
769,44	3924,56
769,62	3938,49
769,80	3949,38
769,98	3964,70
770,16	3958,72
770,34	3953,07
770,52	3914,57
770,70	3928,82
770,88	3947,50
771,06	3889,17
771,24	3844,86
771,42	3844,86
771,60	3801,60
771,78	3809,55
771,96	3788,91
772,13	3733,77
772,31	3799,47
772,49	3747,95
772,67	3724,44
772,85	3720,50
773,03	3675,12
773,21	3676,68
773,39	3683,15
773,57	3633,83
773,75	3634,82
773,93	3562,15
774,11	3564,28
774,29	3540,12
774,47	3509,56
774,64	3434,03
774,82	3474,91
775,00	3431,82
775,18	3421,25
775,36	3407,90
775,54	3417,98
775,72	3398,65
775,90	3389,31
776,08	3368,99
776,26	3327,87
776,43	3314,92
776,61	3290,35
776,79	3276,18
776,97	3294,44
777,15	3231,12
777,33	3199,42
777,51	3222,60
777,69	3165,50
777,87	3166,08
778,04	3143,30
778,22	3131,92
778,40	3117,75
778,58	3099,31
778,76	3082,60
778,94	3035,42
779,12	3040,00
779,30	3017,31
779,47	3023,29
779,65	3008,14
779,83	2999,05
780,01	2981,92
780,19	2942,28
780,37	2943,42
780,55	2902,05
780,73	2888,86
780,90	2886,08
781,08	2870,43
781,26	2877,81
781,44	2844,71
781,62	2842,58
781,80	2837,42
781,97	2830,46
782,15	2791,05
782,33	2782,04
782,51	2780,08
782,69	2757,55
782,87	2710,86
783,04	2707,01
783,22	2682,18
783,40	2656,46
783,58	2676,53
783,76	2665,47
783,94	2628,53
784,11	2629,67
784,29	2621,24
784,47	2595,51
784,65	2624,76
784,83	2571,35
785,01	2536,20
785,18	2541,69
785,36	2530,72
785,54	2559,14
785,72	2511,38
785,90	2509,25
786,07	2475,09
786,25	2460,35
786,43	2457,97
786,61	2427,25
786,79	2419,14
786,96	2430,20
787,14	2373,51
787,32	2367,21
787,50	2380,31
787,67	2372,61
787,85	2325,02
788,03	2358,44
788,21	2302,33
788,39	2270,87
788,56	2282,01
788,74	2265,79
788,92	2238,43
789,10	2216,48
789,27	2192,47
789,45	2196,41
789,63	2170,36
789,81	2200,83
789,99	2169,37
790,16	2154,05
790,34	2113,91
790,52	2138,49
790,70	2122,92
790,87	2121,12
791,05	2093,52
791,23	2075,00
791,41	2063,70
791,58	2066,07
791,76	2031,34
791,94	2028,96
792,12	2003,98
792,29	2007,75
792,47	1996,77
792,65	1988,58
792,82	1969,08
793,00	1969,33
793,18	1963,43
793,36	1950,08
793,53	1938,20
793,71	1937,95
793,89	1919,19
794,07	1930,33
794,24	1914,03
794,42	1882,57
794,60	1882,00
794,77	1889,62
794,95	1890,44
795,13	1874,14
795,31	1836,13
795,48	1857,34
795,66	1839,16
795,84	1825,23
796,01	1815,65
796,19	1826,21
796,37	1792,38
796,54	1817,04
796,72	1779,85
796,90	1787,96
797,08	1803,85
797,25	1764,12
797,43	1758,39
797,61	1751,83
797,78	1751,83
797,96	1741,43
798,14	1720,46
798,31	1740,12
798,49	1710,05
798,67	1726,19
798,84	1728,57
799,02	1706,37
799,20	1702,03
799,37	1668,28
799,55	1666,96
799,73	1616,09
799,90	1619,29
800,08	1647,55
800,26	1626,91
800,43	1616,58
800,61	1593,48
800,79	1573,66
800,96	1559,49
801,14	1575,54
801,32	1556,78
801,49	1558,26
801,67	1540,65
801,84	1564,24
802,02	1547,53
802,20	1512,96
802,37	1518,53
802,55	1527,78
802,73	1503,95
802,90	1506,98
803,08	1484,37
803,26	1482,57
803,43	1464,79
803,61	1468,39
803,78	1445,70
803,96	1457,99
804,14	1433,00
804,31	1448,98
804,49	1427,76
804,67	1442,43
804,84	1445,78
805,02	1408,27
805,19	1412,12
805,37	1432,35
805,55	1432,76
805,72	1436,85
805,90	1383,28
806,07	1408,67
806,25	1385,08
806,43	1411,13
806,60	1410,64
806,78	1374,27
806,95	1365,75
807,13	1385,16
807,30	1362,88
807,48	1331,67
807,66	1314,71
807,83	1335,44
808,01	1325,04
808,18	1328,48
808,36	1302,26
808,54	1300,71
808,71	1279,65
808,89	1278,67
809,06	1248,03
809,24	1275,47
809,41	1236,73
809,59	1250,98
809,76	1234,11
809,94	1248,93
810,12	1211,50
810,29	1226,57
810,47	1206,17
810,64	1221,33
810,82	1193,64
810,99	1179,47
811,17	1175,37
811,34	1173,65
811,52	1165,54
811,69	1172,42
811,87	1152,51
812,05	1153,74
812,22	1136,29
812,40	1113,52
812,57	1105,33
812,75	1112,29
812,92	1083,95
813,10	1079,61
813,27	1059,13
813,45	1036,52
813,62	1008,26
813,80	1022,76
813,97	1000,06
814,15	975,82
814,32	979,50
814,50	943,79
814,67	954,76
814,85	929,94
815,02	927,16
815,20	921,91
815,37	893,98
815,55	908,48
815,72	869,08
815,90	872,11
816,07	841,39
816,25	849,83
816,42	824,76
816,60	851,87
816,77	841,39
816,95	835,16
817,12	828,94
817,30	810,26
817,47	803,54
817,65	806,90
817,82	809,52
818,00	812,22
818,17	807,56
818,35	800,67
818,52	817,55
818,70	792,89
818,87	796,82
819,04	791,01
819,22	780,93
819,39	800,51
819,57	781,26
819,74	801,98
819,92	815,66
820,09	819,68
820,27	843,93
820,44	814,44
820,62	839,50
820,79	850,89
820,96	852,77
821,14	827,79
821,31	817,30
821,49	824,18
821,66	800,84
821,84	790,19
822,01	774,95
822,18	742,76
822,36	754,39
822,53	698,69
822,71	689,26
822,88	682,63
823,06	689,10
823,23	674,60
823,40	709,91
823,58	701,06
823,75	721,79
823,93	711,14
824,10	716,54
824,27	760,78
824,45	748,90
824,62	747,92
824,80	749,97
824,97	753,73
825,14	768,15
825,32	763,32
825,49	738,91
825,67	739,56
825,84	744,72
826,01	733,50
826,19	746,28
826,36	766,19
826,54	764,47
826,71	739,89
826,88	732,93
827,06	719,41
827,23	717,69
827,40	713,59
827,58	718,26
827,75	693,20
827,93	699,18
828,10	693,61
828,27	688,94
828,45	660,43
828,62	663,38
828,79	670,01
828,97	676,89
829,14	690,74
829,31	658,63
829,49	676,24
829,66	665,75
829,83	675,58
830,01	639,05
830,18	680,50
830,35	670,50
830,53	654,69
830,70	653,38
830,87	656,74
831,05	635,94
831,22	637,08
831,39	647,16
831,57	655,43
831,74	635,03
831,91	638,23
832,09	635,53
832,26	648,80
832,43	631,27
832,61	662,15
832,78	638,64
832,95	625,86
833,13	618,24
833,30	618,24
833,47	643,31
833,65	635,53
833,82	622,99
833,99	603,33
834,16	613,00
834,34	613,00
834,51	641,67
834,68	658,71
834,86	634,21
835,03	622,42
835,20	616,68
835,38	624,63
835,55	615,05
835,72	627,42
835,89	607,92
836,07	609,31
836,24	600,71
836,41	601,12
836,58	612,42
836,76	604,07
836,93	604,89
837,10	617,34
837,28	591,21
837,45	620,37
837,62	596,12
837,79	617,34
837,97	579,41
838,14	617,34
838,31	601,61
838,48	582,44
838,66	570,48
838,83	571,96
839,00	584,98
839,17	597,84
839,35	580,80
839,52	560,57
839,69	575,56
839,86	574,33
840,04	560,24
840,21	569,25
840,38	566,47
840,55	567,78
840,72	551,48
840,90	543,78
841,07	565,32
841,24	556,15
841,41	541,97
841,59	554,67
841,76	554,84
841,93	545,82
842,10	540,66
842,27	537,55
842,45	548,36
842,62	534,27
842,79	535,26
842,96	525,02
843,13	531,82
843,31	529,60
843,48	523,38
843,65	507,49
843,82	534,19
843,99	528,05
844,17	520,02
844,34	498,39
844,51	464,89
844,68	509,94
844,85	505,85
845,02	519,53
845,20	499,54
845,37	511,01
845,54	491,92
845,71	479,47
845,88	502,74
846,06	480,70
846,23	488,81
846,40	512,81
846,57	486,52
846,74	510,52
846,91	490,86
847,09	471,85
847,26	501,26
847,43	483,98
847,60	474,64
847,77	473,57
847,94	459,56
848,11	470,46
848,29	458,01
848,46	454,24
848,63	471,85
848,80	449,24
848,97	446,29
849,14	445,39
849,31	437,61
849,49	446,05
849,66	414,59
849,83	415,41
850,00	416,88
850,17	428,52
850,34	433,60
850,51	421,23
850,68	403,53
850,85	410,90
851,03	409,92
851,20	429,01
851,37	423,03
851,54	394,27
851,71	410,33
851,88	406,07
852,05	410,90
852,22	382,97
852,39	412,62
852,57	392,06
852,74	404,51
852,91	402,55
853,08	401,57
853,25	379,86
853,42	364,21
853,59	387,97
853,76	325,38
853,93	374,12
854,10	380,02
854,27	350,94
854,44	339,55
854,62	349,71
854,79	344,30
854,96	355,12
855,13	337,42
855,30	361,26
855,47	365,11
855,64	358,89
855,81	346,19
855,98	354,71
856,15	346,35
856,32	352,74
856,49	362,82
856,66	337,59
856,83	350,69
857,00	377,32
857,17	331,53
857,34	341,77
857,51	360,11
857,69	348,89
857,86	353,97
858,03	327,84
858,20	352,82
858,37	353,40
858,54	375,35
858,71	334,06
858,88	328,08
859,05	331,93
859,22	331,85
859,39	334,06
859,56	357,90
859,73	335,62
859,90	303,84
860,07	306,29
860,24	321,20
860,41	312,60
860,58	323,66
860,75	305,48
860,92	335,38
861,09	317,84
861,26	318,58
861,43	319,81
861,60	308,34
861,77	300,07
861,94	299,66
862,11	311,46
862,28	316,45
862,45	322,02
862,62	295,56
862,79	302,12
862,96	321,04
863,13	304,66
863,30	320,30
863,47	297,04
863,64	296,96
863,81	304,25
863,98	292,78
864,15	282,70
864,32	283,77
864,48	289,83
864,65	289,09
864,82	270,41
864,99	283,85
865,16	271,72
865,33	274,26
865,50	268,45
865,67	266,48
865,84	247,07
866,01	274,10
866,18	263,29
866,35	256,00
866,52	249,85
866,69	251,00
866,86	240,68
867,03	240,02
867,20	255,83
867,37	238,63
867,53	227,73
867,70	252,15
867,87	241,82
868,04	259,03
868,21	236,17
868,38	243,63
868,55	246,82
868,72	235,27
868,89	245,26
869,06	229,86
869,23	242,48
869,40	244,20
869,56	213,07
869,73	246,41
869,90	229,37
870,07	238,38
870,24	221,18
870,41	224,70
870,58	216,27
870,75	244,36
870,92	226,75
871,08	236,09
871,25	236,34
871,42	211,27
871,59	223,39
871,76	227,41
871,93	229,37
872,10	205,78
872,27	211,60
872,43	224,21
872,60	191,69
872,77	194,56
872,94	219,13
873,11	207,25
873,28	184,73
873,45	211,19
873,62	223,23
873,78	195,13
873,95	200,95
874,12	183,25
874,29	195,29
874,46	191,53
874,63	191,85
874,79	180,06
874,96	210,53
875,13	196,36
875,30	163,10
875,47	210,53
875,64	203,73
875,80	193,16
875,97	195,79
876,14	175,22
876,31	176,78
876,48	176,13
876,65	188,74
876,81	166,13
876,98	170,72
877,15	183,25
877,32	170,39
877,49	157,20
877,65	172,85
877,82	192,84
877,99	179,16
878,16	165,15
878,33	156,14
878,49	179,40
878,66	180,06
878,83	168,02
879,00	168,26
879,17	168,59
879,33	141,15
879,50	152,21
879,67	175,22
879,84	164,33
880,01	159,99
880,17	168,18
880,34	145,57
880,51	151,39
880,68	164,49
880,84	164,57
881,01	150,57
881,18	144,75
881,35	155,15
881,52	136,80
881,68	142,87
881,85	144,42
882,02	143,85
882,19	161,54
882,35	144,83
882,52	130,74
882,69	132,13
882,86	147,54
883,02	182,27
883,19	142,95
883,36	126,73
883,53	152,45
883,69	135,90
883,86	142,70
884,03	134,10
884,19	138,12
884,36	132,05
884,53	122,39
884,70	134,35
884,86	135,00
885,03	138,69
885,20	120,67
885,37	123,94
885,53	107,31
885,70	141,64
885,87	124,43
886,03	116,16
886,20	131,89
886,37	104,53
886,54	123,86
886,70	139,43
886,87	114,11
887,04	116,57
887,20	98,38
887,37	151,55
887,54	109,77
887,70	133,77
887,87	108,13
888,04	139,18
888,20	110,18
888,37	127,63
888,54	111,82
888,71	121,57
888,87	98,88
889,04	125,25
889,21	106,66
889,37	117,14
889,54	129,84
889,71	114,44
889,87	101,17
890,04	104,77
890,21	104,77
890,37	104,77
890,54	104,77
890,71	104,77
890,87	104,77
