SpectraSuite Datei
++++++++++++++++++++++++++++++++++++
Datum: Wed Feb 24 11:05:47 CET 2016
Benutzer: Praktikum-Pc1
Dark-Spektrum vorhanden: Ja
Referenz-Spektrum vorhanden: Nein
Zahl der probierten Teilspektren: 1
Spektrometer: USB4F04607
Integrationszeit (usec): 4000 (USB4F04607)
Spektren Durchschnitt berechnet: 130 (USB4F04607)
Boxcar Glättung: 0 (USB4F04607)
Dunkelstromkorrektur: Nein (USB4F04607)
Puls/Lampe aktiviert: Nein (USB4F04607)
Correct for Detector Non-linearity: Nein (USB4F04607)
Streulichtkorrektur: Nein (USB4F04607)
Anzahl Pixel in verarbeitetem Spektrum: 3648
>>>>>Begin Processed Spectral Data<<<<<
177,66	6,63
177,88	6,63
178,10	6,63
178,32	-5,20
178,53	4,10
178,75	5,55
178,97	-1,81
179,19	4,47
179,40	-1,01
179,62	6,27
179,84	7,07
180,05	0,79
180,27	2,52
180,49	4,79
180,71	1,23
180,92	2,87
181,14	13,56
181,36	16,70
181,58	20,70
181,79	12,57
182,01	8,29
182,23	14,75
182,44	13,91
182,66	18,94
182,88	14,84
183,10	14,54
183,31	5,29
183,53	11,72
183,75	11,55
183,96	9,64
184,18	12,71
184,40	12,49
184,62	18,10
184,83	9,52
185,05	8,95
185,27	5,06
185,48	14,13
185,70	8,76
185,92	12,38
186,14	16,18
186,35	13,33
186,57	13,56
186,79	13,00
187,00	12,79
187,22	10,84
187,44	7,86
187,66	7,77
187,87	12,38
188,09	11,28
188,31	5,56
188,52	13,23
188,74	11,53
188,96	9,50
189,17	3,99
189,39	12,57
189,61	9,52
189,82	11,86
190,04	13,22
190,26	6,43
190,48	11,86
190,69	16,10
190,91	16,90
191,13	7,83
191,34	14,92
191,56	12,41
191,78	20,68
191,99	8,76
192,21	12,59
192,43	3,80
192,64	13,22
192,86	5,10
193,08	12,05
193,29	11,77
193,51	11,70
193,73	13,20
193,94	18,87
194,16	11,66
194,38	10,49
194,60	13,85
194,81	13,63
195,03	13,11
195,25	10,15
195,46	16,19
195,68	7,86
195,90	13,78
196,11	13,28
196,33	8,93
196,55	10,00
196,76	15,52
196,98	8,00
197,20	14,02
197,41	12,10
197,63	6,38
197,85	11,94
198,06	3,59
198,28	7,92
198,50	13,30
198,71	9,04
198,93	8,71
199,14	7,01
199,36	11,14
199,58	15,67
199,79	16,78
200,01	6,63
200,23	12,05
200,44	14,65
200,66	10,27
200,88	5,58
201,09	12,92
201,31	8,70
201,53	12,98
201,74	11,96
201,96	11,04
202,18	11,99
202,39	12,70
202,61	12,63
202,83	13,58
203,04	14,23
203,26	18,49
203,47	-0,79
203,69	16,43
203,91	7,61
204,12	8,41
204,34	4,77
204,56	12,05
204,77	15,64
204,99	13,74
205,21	18,34
205,42	3,92
205,64	16,05
205,85	2,38
206,07	7,22
206,29	10,63
206,50	13,82
206,72	11,97
206,94	17,03
207,15	15,36
207,37	16,12
207,58	5,86
207,80	17,27
208,02	10,08
208,23	14,70
208,45	13,33
208,67	8,40
208,88	0,55
209,10	12,73
209,31	10,33
209,53	9,56
209,75	11,66
209,96	9,26
210,18	11,83
210,40	6,46
210,61	10,60
210,83	13,63
211,04	15,60
211,26	7,67
211,48	12,59
211,69	7,15
211,91	13,36
212,12	2,90
212,34	16,42
212,56	10,62
212,77	19,83
212,99	11,20
213,20	12,43
213,42	13,80
213,64	22,23
213,85	14,79
214,07	10,57
214,28	5,39
214,50	18,01
214,72	14,10
214,93	14,89
215,15	12,35
215,36	8,54
215,58	17,91
215,80	15,82
216,01	10,02
216,23	3,42
216,44	16,38
216,66	11,11
216,88	13,36
217,09	15,08
217,31	8,96
217,52	9,34
217,74	17,66
217,95	11,04
218,17	12,51
218,39	22,06
218,60	18,78
218,82	6,95
219,03	12,24
219,25	11,45
219,47	24,24
219,68	6,00
219,90	14,60
220,11	15,31
220,33	12,92
220,54	5,89
220,76	18,01
220,98	8,21
221,19	9,39
221,41	-4,51
221,62	15,86
221,84	13,69
222,05	14,56
222,27	11,31
222,48	13,85
222,70	12,34
222,92	17,20
223,13	15,52
223,35	15,66
223,56	13,91
223,78	5,83
223,99	11,25
224,21	5,84
224,43	13,88
224,64	7,06
224,86	7,81
225,07	17,58
225,29	14,49
225,50	7,85
225,72	6,00
225,93	15,34
226,15	11,47
226,37	9,94
226,58	8,82
226,80	12,07
227,01	16,90
227,23	10,27
227,44	5,97
227,66	10,27
227,87	6,29
228,09	18,07
228,30	10,65
228,52	6,87
228,74	13,63
228,95	19,66
229,17	15,00
229,38	11,88
229,60	10,52
229,81	15,31
230,03	10,84
230,24	6,02
230,46	7,96
230,67	9,97
230,89	13,56
231,10	7,53
231,32	11,83
231,53	16,94
231,75	12,30
231,97	9,28
232,18	10,54
232,40	6,44
232,61	14,78
232,83	21,90
233,04	11,34
233,26	8,82
233,47	16,24
233,69	11,58
233,90	14,81
234,12	9,81
234,33	18,64
234,55	15,45
234,76	12,63
234,98	7,67
235,19	14,95
235,41	16,86
235,62	15,85
235,84	20,56
236,05	23,93
236,27	23,54
236,48	21,35
236,70	24,28
236,91	21,88
237,13	22,34
237,34	18,89
237,56	27,66
237,77	21,03
237,99	22,70
238,20	20,46
238,42	20,70
238,63	30,53
238,85	21,87
239,06	25,69
239,28	24,04
239,49	25,27
239,71	19,36
239,92	29,02
240,14	23,87
240,35	24,75
240,57	20,79
240,78	28,45
241,00	23,13
241,21	21,22
241,43	23,30
241,64	28,06
241,86	23,52
242,07	23,32
242,29	25,24
242,50	17,44
242,72	22,24
242,93	24,42
243,15	26,37
243,36	28,12
243,58	29,19
243,79	21,85
244,01	24,61
244,22	19,11
244,44	23,25
244,65	21,54
244,87	33,29
245,08	25,62
245,29	27,06
245,51	23,52
245,72	31,48
245,94	21,30
246,15	33,15
246,37	28,83
246,58	29,77
246,80	28,26
247,01	35,24
247,23	25,66
247,44	25,63
247,66	25,46
247,87	32,53
248,09	38,80
248,30	27,85
248,51	32,66
248,73	30,89
248,94	28,94
249,16	35,16
249,37	21,36
249,59	28,44
249,80	27,51
250,02	27,21
250,23	34,01
250,45	22,24
250,66	29,43
250,87	24,89
251,09	32,55
251,30	26,62
251,52	23,90
251,73	29,25
251,95	25,52
252,16	31,73
252,38	31,10
252,59	18,90
252,80	33,84
253,02	26,59
253,23	23,36
253,45	28,34
253,66	36,77
253,88	36,69
254,09	28,91
254,30	33,87
254,52	27,99
254,73	29,93
254,95	25,88
255,16	23,91
255,38	33,85
255,59	36,17
255,80	25,52
256,02	31,13
256,23	26,06
256,45	36,04
256,66	32,97
256,88	30,66
257,09	22,43
257,30	27,55
257,52	23,87
257,73	34,08
257,95	23,17
258,16	17,05
258,38	30,58
258,59	28,72
258,80	29,13
259,02	26,01
259,23	22,20
259,45	30,50
259,66	19,90
259,87	25,79
260,09	23,90
260,30	35,23
260,52	26,43
260,73	15,34
260,94	26,45
261,16	18,53
261,37	27,81
261,59	29,38
261,80	21,05
262,01	29,24
262,23	27,58
262,44	34,63
262,66	15,74
262,87	28,14
263,08	31,26
263,30	28,34
263,51	29,02
263,73	29,10
263,94	21,38
264,15	32,42
264,37	29,65
264,58	25,99
264,80	28,77
265,01	20,53
265,22	23,74
265,44	32,17
265,65	21,11
265,86	26,02
266,08	27,95
266,29	21,38
266,51	30,67
266,72	28,67
266,93	24,04
267,15	27,00
267,36	26,67
267,58	25,35
267,79	28,96
268,00	28,81
268,22	29,76
268,43	31,18
268,64	16,19
268,86	26,78
269,07	22,37
269,28	25,30
269,50	29,25
269,71	35,90
269,93	24,83
270,14	22,06
270,35	27,02
270,57	25,16
270,78	34,64
270,99	29,27
271,21	26,12
271,42	25,28
271,63	25,39
271,85	21,65
272,06	17,79
272,28	22,18
272,49	26,59
272,70	11,91
272,92	11,78
273,13	23,39
273,34	13,94
273,56	12,48
273,77	11,63
273,98	13,47
274,20	13,50
274,41	12,49
274,62	8,51
274,84	13,41
275,05	8,52
275,26	11,80
275,48	16,43
275,69	21,16
275,90	19,05
276,12	12,15
276,33	15,39
276,54	15,67
276,76	13,01
276,97	11,63
277,18	18,13
277,40	16,53
277,61	18,98
277,82	17,16
278,04	19,53
278,25	20,01
278,46	11,48
278,68	7,86
278,89	15,03
279,10	11,33
279,32	22,56
279,53	14,98
279,74	15,47
279,96	21,35
280,17	7,94
280,38	11,44
280,60	10,71
280,81	7,15
281,02	17,90
281,24	22,07
281,45	14,23
281,66	17,96
281,88	16,51
282,09	11,48
282,30	16,18
282,52	14,59
282,73	14,62
282,94	15,75
283,15	12,87
283,37	22,31
283,58	17,53
283,79	30,81
284,01	16,79
284,22	21,98
284,43	15,28
284,65	9,86
284,86	8,85
285,07	4,10
285,28	13,30
285,50	18,78
285,71	15,38
285,92	13,63
286,14	15,61
286,35	18,95
286,56	12,16
286,77	10,35
286,99	10,44
287,20	18,01
287,41	14,29
287,63	16,94
287,84	14,13
288,05	16,79
288,27	26,47
288,48	6,41
288,69	15,06
288,90	13,61
289,12	11,53
289,33	18,67
289,54	13,33
289,75	15,23
289,97	18,23
290,18	12,92
290,39	16,68
290,61	21,06
290,82	19,06
291,03	18,35
291,24	11,26
291,46	18,84
291,67	15,64
291,88	16,26
292,09	18,45
292,31	14,59
292,52	10,15
292,73	11,94
292,95	11,58
293,16	20,50
293,37	11,04
293,58	4,57
293,80	19,64
294,01	21,77
294,22	16,95
294,43	11,41
294,65	10,79
294,86	11,12
295,07	13,97
295,28	25,76
295,50	12,98
295,71	1,62
295,92	3,77
296,13	27,27
296,35	15,15
296,56	13,55
296,77	11,85
296,98	6,62
297,20	20,43
297,41	12,82
297,62	14,52
297,83	9,96
298,05	18,48
298,26	9,80
298,47	9,28
298,68	17,49
298,89	18,26
299,11	15,79
299,32	8,22
299,53	19,19
299,74	22,56
299,96	12,34
300,17	10,04
300,38	7,97
300,59	13,69
300,81	19,36
301,02	14,12
301,23	26,34
301,44	10,16
301,65	17,11
301,87	17,91
302,08	8,07
302,29	12,15
302,50	6,62
302,72	16,65
302,93	13,45
303,14	11,39
303,35	16,46
303,56	22,37
303,78	27,74
303,99	25,08
304,20	30,58
304,41	22,10
304,62	23,52
304,84	23,96
305,05	14,93
305,26	12,73
305,47	15,69
305,68	11,63
305,90	15,06
306,11	16,62
306,32	9,45
306,53	13,30
306,74	21,27
306,96	21,02
307,17	22,34
307,38	13,53
307,59	20,18
307,80	18,29
308,02	10,43
308,23	16,48
308,44	18,34
308,65	11,64
308,86	8,85
309,08	14,12
309,29	15,72
309,50	13,91
309,71	14,32
309,92	19,71
310,13	22,04
310,35	16,87
310,56	16,12
310,77	18,90
310,98	16,18
311,19	24,80
311,41	22,61
311,62	15,97
311,83	14,46
312,04	23,95
312,25	13,88
312,46	17,97
312,68	13,72
312,89	15,08
313,10	19,42
313,31	20,32
313,52	16,21
313,73	16,79
313,95	17,00
314,16	21,69
314,37	13,63
314,58	17,91
314,79	20,92
315,00	17,19
315,22	14,07
315,43	23,16
315,64	16,02
315,85	25,10
316,06	18,73
316,27	26,84
316,48	16,97
316,70	20,91
316,91	15,83
317,12	17,39
317,33	19,17
317,54	23,72
317,75	17,28
317,97	28,48
318,18	22,02
318,39	16,75
318,60	21,57
318,81	21,06
319,02	24,50
319,23	17,05
319,45	17,25
319,66	18,48
319,87	25,58
320,08	22,83
320,29	25,41
320,50	14,98
320,71	21,63
320,92	28,48
321,14	16,51
321,35	22,02
321,56	25,06
321,77	24,45
321,98	32,01
322,19	21,24
322,40	32,26
322,61	26,50
322,83	27,16
323,04	31,51
323,25	34,93
323,46	28,34
323,67	28,23
323,88	37,57
324,09	39,38
324,30	40,38
324,52	31,73
324,73	35,68
324,94	44,57
325,15	44,35
325,36	47,76
325,57	45,81
325,78	50,84
325,99	52,41
326,20	53,63
326,41	62,65
326,63	62,34
326,84	70,65
327,05	55,94
327,26	70,62
327,47	82,34
327,68	80,74
327,89	82,96
328,10	89,18
328,31	94,79
328,52	107,85
328,74	167,26
328,95	292,91
329,16	685,20
329,37	1460,85
329,58	2267,53
329,79	2616,01
330,00	2679,06
330,21	2349,34
330,42	1614,60
330,63	796,14
330,84	402,66
331,06	254,81
331,27	177,20
331,48	135,48
331,69	115,36
331,90	102,40
332,11	95,53
332,32	76,97
332,53	75,14
332,74	71,13
332,95	73,41
333,16	59,52
333,37	62,24
333,58	54,37
333,79	52,46
334,01	46,84
334,22	61,16
334,43	48,38
334,64	45,40
334,85	50,51
335,06	50,22
335,27	35,49
335,48	39,24
335,69	35,87
335,90	34,14
336,11	43,13
336,32	34,63
336,53	36,09
336,74	31,16
336,95	29,29
337,16	31,21
337,37	24,62
337,59	44,44
337,80	26,95
338,01	27,90
338,22	27,44
338,43	30,72
338,64	20,39
338,85	25,93
339,06	22,54
339,27	25,68
339,48	30,36
339,69	31,84
339,90	25,14
340,11	20,24
340,32	29,07
340,53	23,71
340,74	30,59
340,95	28,97
341,16	21,71
341,37	23,96
341,58	25,69
341,79	19,93
342,00	17,00
342,21	25,84
342,42	15,36
342,63	26,66
342,84	28,92
343,05	28,26
343,26	25,47
343,48	25,36
343,69	23,05
343,90	30,89
344,11	30,28
344,32	29,60
344,53	16,08
344,74	21,88
344,95	16,89
345,16	26,64
345,37	21,60
345,58	21,69
345,79	18,79
346,00	17,57
346,21	21,55
346,42	20,31
346,63	20,91
346,84	18,83
347,05	21,47
347,26	25,16
347,47	26,21
347,68	21,06
347,89	23,52
348,10	19,28
348,31	15,25
348,52	26,69
348,73	22,10
348,94	19,31
349,15	20,01
349,36	24,06
349,57	18,78
349,78	24,70
349,99	19,46
350,20	22,56
350,41	24,59
350,62	23,39
350,83	25,74
351,04	20,34
351,25	24,32
351,45	22,98
351,66	20,20
351,87	25,49
352,08	18,49
352,29	25,38
352,50	31,35
352,71	14,02
352,92	19,49
353,13	25,68
353,34	19,55
353,55	26,53
353,76	18,01
353,97	21,60
354,18	18,24
354,39	27,69
354,60	20,81
354,81	20,76
355,02	30,89
355,23	19,12
355,44	34,09
355,65	17,64
355,86	22,01
356,07	22,83
356,28	17,93
356,49	30,78
356,70	23,24
356,91	23,35
357,12	20,86
357,32	15,15
357,53	18,37
357,74	26,54
357,95	22,92
358,16	24,92
358,37	25,21
358,58	34,58
358,79	23,36
359,00	26,54
359,21	20,37
359,42	20,40
359,63	19,91
359,84	28,48
360,05	15,22
360,26	28,17
360,47	19,17
360,68	22,62
360,88	15,93
361,09	23,14
361,30	17,06
361,51	20,40
361,72	11,88
361,93	23,80
362,14	20,50
362,35	23,21
362,56	26,50
362,77	22,97
362,98	22,53
363,19	23,79
363,40	23,32
363,60	23,44
363,81	22,18
364,02	20,31
364,23	24,47
364,44	20,53
364,65	25,11
364,86	24,92
365,07	24,64
365,28	21,19
365,49	23,28
365,70	25,85
365,91	31,96
366,11	24,07
366,32	29,63
366,53	16,78
366,74	26,26
366,95	16,51
367,16	20,54
367,37	24,94
367,58	14,18
367,79	23,85
368,00	29,07
368,20	26,26
368,41	27,85
368,62	24,86
368,83	23,93
369,04	18,94
369,25	29,36
369,46	30,89
369,67	25,17
369,88	29,19
370,08	27,65
370,29	25,63
370,50	20,98
370,71	22,31
370,92	28,31
371,13	26,45
371,34	16,24
371,55	33,33
371,75	31,60
371,96	18,16
372,17	28,99
372,38	19,69
372,59	30,33
372,80	30,74
373,01	18,90
373,22	26,73
373,42	19,88
373,63	24,97
373,84	21,55
374,05	21,90
374,26	35,51
374,47	22,48
374,68	21,88
374,88	25,47
375,09	16,89
375,30	23,46
375,51	10,29
375,72	23,50
375,93	20,34
376,14	19,55
376,34	26,78
376,55	20,83
376,76	24,36
376,97	31,13
377,18	18,31
377,39	22,39
377,59	23,88
377,80	23,09
378,01	15,55
378,22	14,71
378,43	18,31
378,64	23,61
378,85	19,79
379,05	19,19
379,26	20,09
379,47	23,16
379,68	18,54
379,89	22,70
380,10	16,13
380,30	19,36
380,51	17,74
380,72	31,48
380,93	20,57
381,14	22,69
381,34	22,29
381,55	20,29
381,76	22,94
381,97	21,82
382,18	24,51
382,39	27,02
382,59	22,35
382,80	27,87
383,01	25,85
383,22	23,57
383,43	25,47
383,63	26,14
383,84	16,54
384,05	21,52
384,26	24,94
384,47	20,37
384,68	23,72
384,88	18,04
385,09	30,25
385,30	25,68
385,51	8,08
385,72	19,24
385,92	23,44
386,13	16,32
386,34	18,09
386,55	16,81
386,76	22,53
386,96	27,62
387,17	21,16
387,38	19,49
387,59	17,09
387,79	26,53
388,00	18,45
388,21	26,84
388,42	22,61
388,63	18,04
388,83	22,24
389,04	21,55
389,25	16,86
389,46	32,53
389,67	24,10
389,87	24,76
390,08	21,83
390,29	20,42
390,50	26,47
390,70	21,57
390,91	30,39
391,12	26,43
391,33	27,03
391,53	28,23
391,74	22,56
391,95	21,06
392,16	20,62
392,37	18,45
392,57	28,21
392,78	27,24
392,99	16,71
393,20	22,56
393,40	26,64
393,61	16,04
393,82	23,44
394,03	25,35
394,23	36,25
394,44	38,25
394,65	26,06
394,86	24,58
395,06	24,54
395,27	18,10
395,48	23,85
395,69	22,45
395,89	23,25
396,10	25,85
396,31	23,58
396,52	24,86
396,72	17,68
396,93	27,57
397,14	25,79
397,35	24,40
397,55	20,42
397,76	27,25
397,97	21,93
398,18	22,23
398,38	22,01
398,59	23,84
398,80	26,69
399,00	20,86
399,21	25,06
399,42	18,75
399,63	17,05
399,83	31,27
400,04	24,64
400,25	25,28
400,46	21,08
400,66	19,72
400,87	25,35
401,08	28,42
401,28	29,47
401,49	25,66
401,70	23,98
401,91	21,63
402,11	18,81
402,32	28,40
402,53	34,01
402,73	23,14
402,94	21,54
403,15	27,66
403,35	31,02
403,56	36,85
403,77	40,55
403,98	35,29
404,18	35,32
404,39	31,37
404,60	22,70
404,80	27,02
405,01	28,86
405,22	19,31
405,42	25,91
405,63	23,43
405,84	28,37
406,05	26,06
406,25	24,51
406,46	31,93
406,67	24,01
406,87	31,54
407,08	29,25
407,29	28,07
407,49	27,00
407,70	29,30
407,91	28,01
408,11	23,55
408,32	25,16
408,53	26,12
408,73	25,19
408,94	26,32
409,15	24,54
409,35	24,94
409,56	19,98
409,77	26,73
409,97	34,63
410,18	20,20
410,39	26,92
410,59	19,05
410,80	24,83
411,01	26,29
411,21	21,22
411,42	28,21
411,63	24,17
411,83	26,50
412,04	30,50
412,25	17,25
412,45	29,57
412,66	30,44
412,87	34,93
413,07	23,03
413,28	31,48
413,49	17,30
413,69	24,09
413,90	34,11
414,11	21,44
414,31	18,07
414,52	33,24
414,72	44,38
414,93	63,41
415,14	80,09
415,34	89,91
415,55	97,48
415,76	82,03
415,96	79,22
416,17	52,84
416,38	34,17
416,58	31,32
416,79	35,56
416,99	29,84
417,20	30,88
417,41	37,51
417,61	40,39
417,82	37,16
418,03	51,75
418,23	40,19
418,44	54,26
418,64	61,79
418,85	72,77
419,06	94,00
419,26	95,20
419,47	105,60
419,67	107,98
419,88	87,53
420,09	73,11
420,29	55,69
420,50	38,63
420,71	29,30
420,91	21,55
421,12	27,17
421,32	29,16
421,53	29,73
421,74	23,03
421,94	21,50
422,15	28,45
422,35	30,86
422,56	33,19
422,77	17,94
422,97	27,87
423,18	16,53
423,38	34,56
423,59	30,06
423,80	19,80
424,00	30,03
424,21	26,48
424,41	36,34
424,62	32,15
424,82	40,08
425,03	43,50
425,24	50,57
425,44	53,12
425,65	51,42
425,85	58,54
426,06	53,86
426,26	54,05
426,47	67,41
426,68	56,63
426,88	51,04
427,09	49,01
427,29	47,56
427,50	40,27
427,70	23,08
427,91	26,51
428,12	33,65
428,32	27,17
428,53	27,25
428,73	34,88
428,94	30,37
429,14	38,00
429,35	43,51
429,56	36,82
429,76	46,54
429,97	43,39
430,17	29,13
430,38	33,63
430,58	35,57
430,79	27,95
430,99	27,32
431,20	30,56
431,40	21,54
431,61	30,91
431,82	35,30
432,02	40,63
432,23	37,86
432,43	42,76
432,64	51,01
432,84	47,72
433,05	47,59
433,25	56,45
433,46	40,53
433,66	48,36
433,87	45,24
434,07	48,35
434,28	43,23
434,49	40,31
434,69	30,72
434,90	33,05
435,10	26,10
435,31	28,26
435,51	36,88
435,72	30,80
435,92	23,87
436,13	24,89
436,33	29,87
436,54	25,68
436,74	26,72
436,95	31,48
437,15	28,04
437,36	27,00
437,56	34,19
437,77	35,19
437,97	33,30
438,18	37,43
438,38	35,60
438,59	30,53
438,79	32,50
439,00	36,33
439,20	38,45
439,41	32,74
439,61	31,60
439,82	28,01
440,02	27,33
440,23	31,98
440,43	26,97
440,64	32,29
440,84	31,46
441,05	35,29
441,25	28,39
441,46	27,13
441,66	20,01
441,87	28,47
442,07	33,07
442,28	34,89
442,48	34,12
442,69	30,44
442,89	29,05
443,10	37,79
443,30	32,28
443,51	30,04
443,71	29,77
443,92	30,78
444,12	29,52
444,32	34,96
444,53	34,80
444,73	34,63
444,94	38,93
445,14	36,72
445,35	36,44
445,55	34,36
445,76	37,79
445,96	30,44
446,17	36,34
446,37	31,37
446,58	34,93
446,78	35,87
446,98	33,90
447,19	34,89
447,39	32,50
447,60	33,05
447,80	28,18
448,01	34,15
448,21	40,23
448,42	38,83
448,62	40,23
448,82	37,35
449,03	43,45
449,23	44,83
449,44	45,43
449,64	47,80
449,85	43,12
450,05	45,98
450,26	32,45
450,46	48,99
450,66	43,18
450,87	49,42
451,07	47,84
451,28	38,61
451,48	46,41
451,69	34,53
451,89	41,49
452,09	40,34
452,30	31,27
452,50	44,30
452,71	36,52
452,91	32,99
453,12	36,11
453,32	31,03
453,52	35,26
453,73	42,42
453,93	38,34
454,14	30,91
454,34	43,48
454,54	44,79
454,75	43,24
454,95	41,26
455,16	43,48
455,36	49,42
455,56	44,36
455,77	43,50
455,97	40,39
456,18	41,07
456,38	35,00
456,58	41,13
456,79	31,46
456,99	30,17
457,20	29,30
457,40	35,92
457,60	37,19
457,81	32,64
458,01	37,41
458,22	31,24
458,42	37,16
458,62	37,19
458,83	37,15
459,03	46,99
459,23	40,17
459,44	39,38
459,64	43,92
459,85	29,25
460,05	37,84
460,25	33,54
460,46	39,10
460,66	32,52
460,86	35,49
461,07	27,98
461,27	43,24
461,48	34,42
461,68	32,86
461,88	34,91
462,09	34,86
462,29	37,12
462,49	45,01
462,70	37,32
462,90	35,67
463,10	30,72
463,31	40,77
463,51	35,21
463,72	31,11
463,92	36,86
464,12	36,67
464,33	41,65
464,53	36,97
464,73	40,22
464,94	46,41
465,14	36,75
465,34	51,73
465,55	63,42
465,75	90,16
465,95	98,03
466,16	125,57
466,36	123,76
466,56	124,09
466,77	108,98
466,97	83,78
467,17	74,81
467,38	48,52
467,58	48,46
467,78	47,76
467,99	38,66
468,19	33,07
468,39	40,66
468,60	44,00
468,80	33,74
469,00	42,94
469,21	41,95
469,41	47,59
469,61	38,52
469,82	48,32
470,02	41,67
470,22	41,89
470,42	46,58
470,63	43,02
470,83	42,30
471,03	36,88
471,24	44,82
471,44	46,96
471,64	46,19
471,85	42,72
472,05	36,85
472,25	36,26
472,46	40,90
472,66	46,69
472,86	38,34
473,06	40,85
473,27	45,48
473,47	53,34
473,67	57,47
473,88	54,68
474,08	70,77
474,28	72,18
474,48	74,78
474,69	72,58
474,89	72,73
475,09	62,92
475,30	63,31
475,50	59,66
475,70	46,69
475,90	41,92
476,11	37,29
476,31	43,91
476,51	47,28
476,72	53,69
476,92	45,24
477,12	32,58
477,32	52,54
477,53	52,33
477,73	50,16
477,93	50,88
478,13	48,68
478,34	41,94
478,54	42,93
478,74	53,40
478,94	50,13
479,15	52,48
479,35	46,08
479,55	45,46
479,75	43,24
479,96	40,68
480,16	44,69
480,36	42,46
480,57	54,13
480,77	55,36
480,97	43,37
481,17	49,07
481,37	50,49
481,58	56,22
481,78	53,22
481,98	50,95
482,18	55,06
482,39	53,61
482,59	54,93
482,79	45,89
482,99	60,79
483,20	55,48
483,40	48,96
483,60	51,56
483,80	56,16
484,01	59,56
484,21	49,12
484,41	50,68
484,61	57,26
484,81	49,75
485,02	54,02
485,22	60,46
485,42	50,68
485,62	55,39
485,83	55,41
486,03	54,78
486,23	47,61
486,43	55,77
486,63	55,66
486,84	63,66
487,04	52,92
487,24	59,36
487,44	55,23
487,64	60,19
487,85	52,92
488,05	60,05
488,25	66,21
488,45	61,05
488,65	60,29
488,86	65,33
489,06	68,54
489,26	57,56
489,46	59,50
489,66	59,85
489,87	62,90
490,07	52,96
490,27	49,36
490,47	55,14
490,67	60,98
490,88	62,76
491,08	59,83
491,28	63,57
491,48	56,52
491,68	61,66
491,88	59,72
492,09	55,53
492,29	67,79
492,49	77,78
492,69	77,08
492,89	84,61
493,09	73,35
493,30	82,12
493,50	87,83
493,70	77,57
493,90	71,87
494,10	69,36
494,30	73,93
494,51	69,85
494,71	66,23
494,91	61,47
495,11	74,10
495,31	74,94
495,51	74,53
495,72	65,60
495,92	73,79
496,12	76,18
496,32	94,81
496,52	142,52
496,72	240,70
496,92	425,08
497,13	639,58
497,33	898,59
497,53	1100,23
497,73	1192,64
497,93	1194,99
498,13	1018,36
498,33	805,62
498,54	551,69
498,74	350,20
498,94	228,95
499,14	159,52
499,34	128,93
499,54	104,75
499,74	101,28
499,94	89,12
500,15	86,94
500,35	76,04
500,55	72,44
500,75	73,27
500,95	88,25
501,15	90,13
501,35	73,27
501,55	75,32
501,76	80,61
501,96	80,96
502,16	75,48
502,36	77,37
502,56	74,81
502,76	74,18
502,96	70,36
503,16	69,52
503,36	71,77
503,57	69,66
503,77	71,85
503,97	75,71
504,17	70,89
504,37	81,30
504,57	71,16
504,77	73,03
504,97	70,39
505,17	81,78
505,37	77,05
505,57	68,09
505,78	74,22
505,98	67,69
506,18	69,19
506,38	76,99
506,58	81,93
506,78	71,19
506,98	77,29
507,18	76,56
507,38	73,68
507,58	71,71
507,78	73,70
507,98	72,61
508,19	77,32
508,39	82,74
508,59	82,77
508,79	80,64
508,99	83,35
509,19	78,91
509,39	85,90
509,59	84,03
509,79	93,20
509,99	80,47
510,19	87,16
510,39	81,56
510,59	87,13
510,79	83,26
510,99	85,21
511,19	88,24
511,39	75,46
511,60	83,01
511,80	74,47
512,00	79,59
512,20	88,80
512,40	87,12
512,60	80,20
512,80	86,57
513,00	96,71
513,20	88,19
513,40	97,56
513,60	112,81
513,80	143,85
514,00	200,07
514,20	273,59
514,40	349,08
514,60	409,07
514,80	430,85
515,00	434,77
515,20	380,67
515,40	314,08
515,60	251,47
515,80	181,70
516,00	148,60
516,20	124,23
516,40	115,13
516,60	106,07
516,80	101,04
517,00	99,47
517,20	90,95
517,40	91,76
517,60	89,95
517,80	92,96
518,00	93,88
518,20	112,75
518,40	102,41
518,60	97,72
518,80	98,66
519,00	101,58
519,20	91,29
519,40	90,93
519,60	89,69
519,80	86,28
520,00	87,76
520,20	94,22
520,40	99,67
520,60	97,88
520,80	92,00
521,00	96,57
521,20	99,83
521,40	100,56
521,60	97,89
521,80	97,26
522,00	98,02
522,20	103,77
522,40	101,50
522,60	97,66
522,80	97,69
523,00	96,16
523,20	95,23
523,40	96,41
523,60	96,44
523,80	100,81
524,00	111,65
524,20	98,44
524,40	99,52
524,60	103,82
524,80	96,40
525,00	104,89
525,20	104,34
525,40	107,88
525,60	101,93
525,80	103,91
526,00	109,42
526,20	104,10
526,40	103,90
526,60	99,31
526,79	102,11
526,99	113,49
527,19	99,74
527,39	103,52
527,59	103,44
527,79	108,26
527,99	106,32
528,19	113,63
528,39	110,26
528,59	107,42
528,79	105,52
528,99	107,66
529,19	111,03
529,39	115,10
529,59	111,85
529,79	107,69
529,98	113,65
530,18	107,23
530,38	110,29
530,58	108,04
530,78	111,65
530,98	116,77
531,18	113,60
531,38	112,15
531,58	116,91
531,78	117,68
531,98	120,83
532,18	115,68
532,37	117,30
532,57	114,25
532,77	113,38
532,97	120,45
533,17	119,24
533,37	115,13
533,57	119,29
533,77	117,84
533,97	112,94
534,17	112,31
534,37	117,36
534,56	112,18
534,76	118,86
534,96	120,91
535,16	119,22
535,36	116,83
535,56	113,80
535,76	126,49
535,96	116,97
536,16	115,40
536,35	120,85
536,55	114,12
536,75	119,08
536,95	122,30
537,15	124,09
537,35	118,50
537,55	124,53
537,75	122,72
537,94	130,27
538,14	134,11
538,34	135,07
538,54	132,96
538,74	133,81
538,94	130,93
539,14	136,38
539,34	132,24
539,53	132,87
539,73	137,69
539,93	142,65
540,13	134,20
540,33	142,89
540,53	138,44
540,73	132,09
540,92	136,05
541,12	143,12
541,32	138,47
541,52	138,79
541,72	145,72
541,92	143,97
542,11	144,02
542,31	145,88
542,51	149,52
542,71	151,23
542,91	151,66
543,11	141,59
543,30	159,73
543,50	162,53
543,70	162,66
543,90	166,89
544,10	162,97
544,30	162,81
544,49	174,64
544,69	167,21
544,89	170,77
545,09	179,23
545,29	175,72
545,49	177,12
545,68	172,83
545,88	163,52
546,08	174,75
546,28	163,85
546,48	174,01
546,67	176,35
546,87	182,62
547,07	176,96
547,27	174,98
547,47	188,67
547,67	183,43
547,86	190,63
548,06	197,38
548,26	202,70
548,46	212,04
548,66	215,92
548,85	214,17
549,05	219,29
549,25	216,74
549,45	218,17
549,65	210,75
549,84	217,75
550,04	219,13
550,24	214,86
550,44	229,91
550,63	233,15
550,83	240,46
551,03	236,54
551,23	248,40
551,43	253,95
551,62	260,34
551,82	259,37
552,02	263,81
552,22	263,83
552,41	276,51
552,61	285,58
552,81	276,46
553,01	274,92
553,21	284,51
553,40	283,96
553,60	277,97
553,80	290,69
554,00	281,26
554,19	300,47
554,39	298,07
554,59	297,41
554,79	304,56
554,98	311,43
555,18	320,19
555,38	325,56
555,58	330,76
555,77	340,72
555,97	329,44
556,17	338,84
556,37	329,42
556,56	343,48
556,76	347,70
556,96	352,41
557,16	354,76
557,35	358,30
557,55	365,42
557,75	369,89
557,95	380,07
558,14	381,82
558,34	385,29
558,54	378,46
558,73	404,05
558,93	402,10
559,13	405,64
559,33	410,11
559,52	433,02
559,72	436,80
559,92	444,14
560,12	447,36
560,31	451,42
560,51	467,20
560,71	462,97
560,90	472,07
561,10	473,79
561,30	477,90
561,50	478,12
561,69	499,45
561,89	503,15
562,09	515,17
562,28	516,73
562,48	521,22
562,68	536,14
562,87	543,96
563,07	559,44
563,27	574,39
563,47	584,27
563,66	600,53
563,86	611,55
564,06	638,15
564,25	657,81
564,45	672,54
564,65	685,90
564,84	704,11
565,04	717,94
565,24	722,76
565,43	749,57
565,63	768,18
565,83	784,58
566,02	804,08
566,22	818,78
566,42	828,69
566,61	901,74
566,81	1167,18
567,01	1801,76
567,20	2915,87
567,40	4509,06
567,60	6847,92
567,79	9495,04
567,99	12004,06
568,19	13557,05
568,38	14233,75
568,58	13422,23
568,78	11733,07
568,97	9316,32
569,17	6817,75
569,37	4702,18
569,56	3260,04
569,76	2455,66
569,96	1972,49
570,15	1698,38
570,35	1537,79
570,55	1442,70
570,74	1354,97
570,94	1340,36
571,13	1308,10
571,33	1311,02
571,53	1313,00
571,72	1325,22
571,92	1332,46
572,12	1371,19
572,31	1381,35
572,51	1381,81
572,71	1382,68
572,90	1373,42
573,10	1365,33
573,29	1367,93
573,49	1394,19
573,69	1385,04
573,88	1403,43
574,08	1424,95
574,28	1445,76
574,47	1457,67
574,67	1491,93
574,86	1498,69
575,06	1530,05
575,26	1533,72
575,45	1532,18
575,65	1552,28
575,84	1569,71
576,04	1614,67
576,24	1629,16
576,43	1654,27
576,63	1721,43
576,82	1727,92
577,02	1772,99
577,22	1806,47
577,41	1837,61
577,61	1888,15
577,80	1926,81
578,00	1952,53
578,20	1999,48
578,39	2034,07
578,59	2089,79
578,78	2122,20
578,98	2194,04
579,17	2223,75
579,37	2291,96
579,57	2338,59
579,76	2411,99
579,96	2448,68
580,15	2515,24
580,35	2592,92
580,55	2656,23
580,74	2717,15
580,94	2805,95
581,13	2881,21
581,33	2994,70
581,52	3087,90
581,72	3216,68
581,91	3305,56
582,11	3466,41
582,31	3596,03
582,50	3849,27
582,70	4133,89
582,89	4498,80
583,09	4905,50
583,28	5311,72
583,48	5658,85
583,67	6104,24
583,87	6455,75
584,07	6871,36
584,26	7172,16
584,46	7462,80
584,65	7529,88
584,85	7649,76
585,04	7565,40
585,24	7542,26
585,43	7504,25
585,63	7526,17
585,82	7615,70
586,02	7859,10
586,21	8118,67
586,41	8503,56
586,61	9240,06
586,80	10278,79
587,00	11836,61
587,19	23607,35
587,39	54995,32
587,58	64329,19
587,78	64325,53
587,97	64329,83
588,17	64322,96
588,36	64333,43
588,56	64317,72
588,75	64328,94
588,95	64322,13
589,14	64329,12
589,34	64320,82
589,53	64334,67
589,73	64317,34
589,92	64331,52
590,12	64317,94
590,31	64327,69
590,51	64318,38
590,70	64330,34
590,90	64326,71
591,09	64330,16
591,29	64322,46
591,48	64337,47
591,68	64322,56
591,87	64329,14
592,07	64325,25
592,26	64337,40
592,46	64324,86
592,65	64334,51
592,85	64320,82
593,04	64338,23
593,24	64325,09
593,43	64325,72
593,63	64323,03
593,82	64332,09
594,01	64326,24
594,21	64337,44
594,40	64321,14
594,60	64333,33
594,79	64319,59
594,99	64334,32
595,18	64314,88
595,38	64329,25
595,57	64324,07
595,77	64337,44
595,96	64319,50
596,16	64332,31
596,35	64326,54
596,54	64334,59
596,74	64315,14
596,93	64329,98
597,13	64318,11
597,32	64334,87
597,52	64322,93
597,71	64334,61
597,91	64317,72
598,10	64332,64
598,29	64320,43
598,49	64335,95
598,68	64318,87
598,88	64328,87
599,07	64322,08
599,27	64337,79
599,46	64321,99
599,65	64334,83
599,85	64320,18
600,04	64336,92
600,24	64322,18
600,43	64331,65
600,63	64317,06
600,82	64340,86
601,01	64320,73
601,21	64336,20
601,40	64319,96
601,60	64331,22
601,79	64320,85
601,99	64330,04
602,18	64324,62
602,37	64331,11
602,57	64324,76
602,76	64338,43
602,96	64321,80
603,15	64331,83
603,34	64323,20
603,54	64334,20
603,73	64323,11
603,93	64333,85
604,12	64326,62
604,31	64337,13
604,51	64324,32
604,70	64334,51
604,90	64325,60
605,09	64330,26
605,28	64321,58
605,48	64331,94
605,67	64318,70
605,86	64330,05
606,06	64321,81
606,25	64334,91
606,45	64322,63
606,64	64335,33
606,83	64322,82
607,03	52226,76
607,22	52881,97
607,41	51662,31
607,61	51657,10
607,80	51660,83
608,00	51650,34
608,19	51646,05
608,38	51530,75
608,58	43138,68
608,77	38985,83
608,96	38967,66
609,16	38940,61
609,35	38947,70
609,54	38935,62
609,74	38939,64
609,93	38921,43
610,12	38928,06
610,32	38913,96
610,51	37472,74
610,71	26525,67
610,90	26255,92
611,09	26241,66
611,29	23230,93
611,48	14368,50
611,67	13530,85
611,87	13515,74
612,06	9722,09
612,25	897,96
612,45	822,89
612,64	802,85
612,83	784,21
613,03	784,36
613,22	777,72
613,41	767,03
613,61	757,53
613,80	772,70
613,99	821,35
614,18	933,76
614,38	1137,87
614,57	1418,09
614,76	1841,47
614,96	2304,55
615,15	2836,89
615,34	3231,14
615,54	3491,31
615,73	3498,23
615,92	3302,70
616,12	2886,67
616,31	2426,13
616,50	1900,91
616,69	1452,97
616,89	1158,49
617,08	965,77
617,27	841,92
617,47	759,47
617,66	704,49
617,85	660,63
618,05	640,34
618,24	613,04
618,43	592,62
618,62	572,85
618,82	574,05
619,01	563,90
619,20	561,90
619,40	547,67
619,59	538,41
619,78	523,11
619,97	528,42
620,17	514,40
620,36	514,59
620,55	509,01
620,74	500,92
620,94	510,94
621,13	494,40
621,32	488,35
621,51	484,96
621,71	480,48
621,90	473,05
622,09	475,27
622,29	470,56
622,48	469,55
622,67	466,43
622,86	459,91
623,06	449,21
623,25	446,60
623,44	444,14
623,63	446,05
623,83	440,11
624,02	443,42
624,21	437,27
624,40	430,34
624,59	433,51
624,79	437,19
624,98	428,56
625,17	437,35
625,36	430,39
625,56	434,07
625,75	434,82
625,94	430,66
626,13	421,80
626,33	423,80
626,52	412,81
626,71	405,81
626,90	399,05
627,09	402,71
627,29	384,51
627,48	380,58
627,67	374,26
627,86	385,22
628,05	369,77
628,25	364,90
628,44	365,61
628,63	368,85
628,82	366,19
629,02	360,27
629,21	352,31
629,40	360,73
629,59	355,76
629,78	348,52
629,98	342,33
630,17	337,25
630,36	339,71
630,55	326,05
630,74	330,83
630,93	336,47
631,13	320,55
631,32	325,63
631,51	318,32
631,70	312,03
631,89	308,96
632,09	315,77
632,28	299,89
632,47	306,31
632,66	306,72
632,85	301,32
633,04	294,43
633,24	303,40
633,43	298,34
633,62	300,36
633,81	297,74
634,00	298,42
634,19	290,24
634,39	292,07
634,58	299,44
634,77	284,57
634,96	279,94
635,15	272,19
635,34	274,81
635,54	278,87
635,73	260,77
635,92	268,24
636,11	265,27
636,30	270,13
636,49	258,52
636,68	264,46
636,88	260,09
637,07	255,08
637,26	256,33
637,45	259,26
637,64	254,88
637,83	254,91
638,02	248,09
638,21	252,48
638,41	260,38
638,60	245,85
638,79	246,10
638,98	246,59
639,17	240,86
639,36	240,34
639,55	239,58
639,74	232,57
639,94	229,56
640,13	234,62
640,32	231,78
640,51	227,70
640,70	245,68
640,89	242,45
641,08	253,41
641,27	248,31
641,46	236,19
641,66	238,32
641,85	241,36
642,04	224,16
642,23	219,45
642,42	224,60
642,61	208,63
642,80	220,44
642,99	217,95
643,18	213,95
643,37	213,73
643,56	211,93
643,76	216,94
643,95	215,32
644,14	207,88
644,33	208,40
644,52	207,30
644,71	205,99
644,90	203,46
645,09	209,62
645,28	202,20
645,47	205,35
645,66	203,44
645,85	196,75
646,04	192,54
646,24	196,32
646,43	188,24
646,62	196,16
646,81	185,03
647,00	199,02
647,19	196,56
647,38	186,65
647,57	188,89
647,76	197,53
647,95	192,34
648,14	196,62
648,33	191,12
648,52	189,59
648,71	189,23
648,90	186,84
649,09	183,83
649,28	173,62
649,47	180,33
649,66	181,04
649,85	176,94
650,05	180,39
650,24	180,87
650,43	169,98
650,62	177,87
650,81	176,09
651,00	167,05
651,19	168,96
651,38	169,45
651,57	166,15
651,76	168,12
651,95	169,35
652,14	164,22
652,33	161,85
652,52	166,06
652,71	167,00
652,90	162,99
653,09	158,78
653,28	163,98
653,47	160,95
653,66	156,09
653,85	162,66
654,04	155,58
654,23	153,16
654,42	162,06
654,61	152,75
654,80	153,06
654,99	148,79
655,18	152,27
655,37	164,40
655,56	149,06
655,75	162,99
655,94	158,95
656,13	151,68
656,32	149,39
656,51	149,71
656,70	148,40
656,89	136,02
657,08	142,37
657,27	152,31
657,46	147,74
657,65	146,00
657,84	138,77
658,03	141,25
658,22	141,36
658,40	145,78
658,59	141,78
658,78	132,44
658,97	129,10
659,16	131,16
659,35	136,21
659,54	132,36
659,73	138,79
659,92	127,79
660,11	127,43
660,30	129,42
660,49	126,15
660,68	133,73
660,87	136,71
661,06	131,89
661,25	136,11
661,44	131,64
661,63	137,58
661,82	128,08
662,01	128,12
662,19	131,86
662,38	127,56
662,57	130,11
662,76	131,70
662,95	128,53
663,14	122,70
663,33	121,82
663,52	116,59
663,71	124,15
663,90	116,94
664,09	126,15
664,28	120,28
664,47	115,85
664,65	120,48
664,84	118,88
665,03	120,92
665,22	114,59
665,41	114,09
665,60	110,81
665,79	122,30
665,98	111,60
666,17	124,99
666,36	122,11
666,55	115,10
666,73	124,47
666,92	143,72
667,11	135,69
667,30	138,17
667,49	135,21
667,68	137,59
667,87	131,04
668,06	125,57
668,25	114,47
668,43	116,69
668,62	114,50
668,81	106,79
669,00	110,95
669,19	96,81
669,38	103,71
669,57	102,98
669,76	100,19
669,94	97,20
670,13	100,59
670,32	101,86
670,51	92,80
670,70	107,14
670,89	97,88
671,08	99,59
671,26	89,53
671,45	88,85
671,64	96,77
671,83	87,34
672,02	88,79
672,21	92,28
672,40	96,73
672,58	87,10
672,77	83,71
672,96	90,32
673,15	86,30
673,34	85,09
673,53	88,76
673,71	88,42
673,90	92,10
674,09	93,21
674,28	106,68
674,47	111,05
674,66	127,43
674,84	135,28
675,03	127,87
675,22	141,29
675,41	121,78
675,60	118,51
675,79	103,69
675,97	101,11
676,16	92,32
676,35	92,90
676,54	89,81
676,73	78,42
676,91	82,45
677,10	84,38
677,29	81,46
677,48	86,24
677,67	79,89
677,86	81,40
678,04	80,53
678,23	71,05
678,42	72,72
678,61	68,31
678,80	76,56
678,98	81,13
679,17	74,77
679,36	69,90
679,55	74,92
679,73	74,64
679,92	65,98
680,11	66,76
680,30	73,16
680,49	66,51
680,67	73,36
680,86	65,76
681,05	74,55
681,24	76,31
681,42	67,91
681,61	59,66
681,80	75,24
681,99	66,31
682,18	68,17
682,36	62,75
682,55	67,93
682,74	62,21
682,93	67,25
683,11	57,25
683,30	70,84
683,49	63,57
683,68	61,41
683,86	62,16
684,05	57,67
684,24	69,25
684,43	65,16
684,61	56,19
684,80	63,38
684,99	63,79
685,18	65,83
685,36	67,33
685,55	56,79
685,74	58,40
685,93	67,52
686,11	81,82
686,30	83,37
686,49	90,79
686,67	97,09
686,86	94,81
687,05	95,88
687,24	89,39
687,42	85,35
687,61	82,90
687,80	71,10
687,99	73,92
688,17	63,69
688,36	63,58
688,55	69,13
688,73	63,39
688,92	62,32
689,11	60,26
689,29	61,47
689,48	58,90
689,67	60,10
689,86	56,49
690,04	57,67
690,23	52,73
690,42	50,35
690,60	50,73
690,79	55,94
690,98	54,48
691,16	57,55
691,35	46,82
691,54	57,12
691,72	54,90
691,91	54,46
692,10	56,02
692,29	57,78
692,47	65,33
692,66	64,40
692,85	62,53
693,03	67,28
693,22	80,96
693,41	76,34
693,59	79,92
693,78	86,08
693,97	75,37
694,15	67,71
694,34	70,56
694,53	73,44
694,71	66,59
694,90	88,66
695,09	168,80
695,27	434,67
695,46	903,26
695,64	1518,79
695,83	2171,68
696,02	2855,59
696,20	3228,67
696,39	3299,50
696,58	3067,56
696,76	2560,32
696,95	1909,02
697,14	1282,66
697,32	875,46
697,51	585,50
697,70	417,77
697,88	309,42
698,07	235,26
698,25	189,41
698,44	159,68
698,63	121,02
698,81	110,83
699,00	93,26
699,19	74,75
699,37	64,02
699,56	74,55
699,74	59,20
699,93	54,68
700,12	52,48
700,30	43,45
700,49	47,53
700,67	54,98
700,86	51,06
701,05	57,77
701,23	57,91
701,42	49,29
701,60	54,52
701,79	55,88
701,98	52,43
702,16	65,83
702,35	68,26
702,53	91,94
702,72	97,51
702,91	88,54
703,09	82,85
703,28	81,95
703,46	67,55
703,65	62,05
703,83	48,27
704,02	48,08
704,21	46,66
704,39	51,73
704,58	47,04
704,76	43,56
704,95	47,64
705,13	76,52
705,32	139,99
705,51	348,20
705,69	655,48
705,88	1027,95
706,06	1438,56
706,25	1772,11
706,43	1991,62
706,62	1947,48
706,80	1763,52
706,99	1451,19
707,18	1050,51
707,36	704,64
707,55	479,59
707,73	341,48
707,92	235,77
708,10	184,10
708,29	143,61
708,47	123,40
708,66	97,11
708,84	88,41
709,03	69,54
709,21	65,03
709,40	54,87
709,59	57,36
709,77	48,19
709,96	51,50
710,14	51,81
710,33	46,11
710,51	53,06
710,70	48,14
710,88	43,92
711,07	46,63
711,25	39,45
711,44	44,65
711,62	40,82
711,81	34,66
711,99	43,92
712,18	49,80
712,36	41,34
712,55	38,80
712,73	43,68
712,92	42,31
713,10	43,78
713,29	43,72
713,47	64,83
713,66	96,87
713,84	143,22
714,03	191,55
714,21	228,43
714,40	241,25
714,58	241,30
714,77	229,14
714,95	195,39
715,14	148,04
715,32	107,93
715,51	91,18
715,69	77,52
715,87	62,79
716,06	59,90
716,24	47,07
716,43	50,57
716,61	46,80
716,80	41,68
716,98	35,40
717,17	41,48
717,35	32,45
717,54	40,61
717,72	43,15
717,91	36,04
718,09	38,38
718,27	33,57
718,46	31,89
718,64	37,71
718,83	34,58
719,01	33,04
719,20	40,60
719,38	36,19
719,57	35,81
719,75	41,92
719,93	35,86
720,12	37,15
720,30	44,66
720,49	53,07
720,67	37,62
720,86	41,78
721,04	40,39
721,22	39,65
721,41	45,34
721,59	36,72
721,78	29,33
721,96	34,88
722,14	38,06
722,33	40,66
722,51	37,13
722,70	39,16
722,88	34,06
723,06	38,72
723,25	38,97
723,43	42,17
723,62	31,03
723,80	42,55
723,98	39,18
724,17	38,34
724,35	24,07
724,54	36,04
724,72	45,24
724,90	33,81
725,09	41,05
725,27	35,74
725,46	32,22
725,64	39,04
725,82	57,82
726,01	108,70
726,19	203,73
726,38	333,52
726,56	466,32
726,74	614,50
726,93	692,62
727,11	714,19
727,29	661,64
727,48	561,25
727,66	428,77
727,84	298,22
728,03	212,25
728,21	154,09
728,40	113,69
728,58	95,39
728,76	64,78
728,95	60,51
729,13	54,32
729,31	42,99
729,50	35,52
729,68	48,68
729,86	38,96
730,05	44,00
730,23	41,23
730,41	45,01
730,60	46,02
730,78	51,03
730,96	45,83
731,15	46,74
731,33	49,89
731,51	46,41
731,70	42,27
731,88	39,46
732,06	34,66
732,25	28,69
732,43	32,15
732,61	40,57
732,80	34,30
732,98	36,49
733,16	31,65
733,34	38,39
733,53	32,20
733,71	29,70
733,89	35,04
734,08	38,96
734,26	48,14
734,44	48,24
734,63	49,40
734,81	59,11
734,99	59,52
735,18	50,82
735,36	57,03
735,54	54,49
735,72	46,44
735,91	50,10
736,09	53,33
736,27	60,02
736,46	74,07
736,64	89,78
736,82	120,72
737,00	264,24
737,19	592,93
737,37	1121,12
737,55	1738,68
737,73	2427,22
737,92	3002,21
738,10	3313,82
738,28	3215,53
738,47	2889,10
738,65	2330,30
738,83	1672,97
739,01	1169,34
739,20	776,16
739,38	543,86
739,56	352,14
739,74	260,22
739,93	193,90
740,11	152,68
740,29	119,24
740,47	108,95
740,66	85,57
740,84	73,81
741,02	68,92
741,20	63,31
741,38	55,36
741,57	57,34
741,75	53,88
741,93	50,82
742,11	43,76
742,30	49,48
742,48	51,64
742,66	50,65
742,84	46,32
743,03	58,27
743,21	50,54
743,39	53,12
743,57	48,33
743,75	52,13
743,94	49,09
744,12	51,73
744,30	41,10
744,48	44,08
744,66	43,53
744,85	36,14
745,03	41,24
745,21	38,88
745,39	36,45
745,57	38,75
745,76	42,99
745,94	36,14
746,12	34,55
746,30	44,46
746,48	42,71
746,67	49,84
746,85	45,20
747,03	53,86
747,21	50,82
747,39	46,66
747,57	46,87
747,76	42,16
747,94	47,97
748,12	47,26
748,30	47,51
748,48	57,31
748,67	57,50
748,85	101,89
749,03	244,98
749,21	589,78
749,39	1060,12
749,57	1603,39
749,75	2252,88
749,94	2706,97
750,12	3024,50
750,30	3223,12
750,48	3387,06
750,66	3450,64
750,84	3558,80
751,03	3575,44
751,21	3439,19
751,39	3084,62
751,57	2575,94
751,75	1977,30
751,93	1405,06
752,11	973,04
752,29	662,90
752,48	461,53
752,66	331,27
752,84	249,99
753,02	192,92
753,20	151,05
753,38	125,51
753,56	117,07
753,74	94,63
753,93	74,88
754,11	67,68
754,29	67,28
754,47	57,55
754,65	56,89
754,83	54,74
755,01	63,79
755,19	47,81
755,37	52,60
755,56	43,54
755,74	43,72
755,92	47,23
756,10	43,34
756,28	37,41
756,46	50,55
756,64	50,43
756,82	50,79
757,00	48,55
757,18	47,81
757,36	45,72
757,55	45,10
757,73	46,49
757,91	37,04
758,09	43,28
758,27	51,39
758,45	46,95
758,63	53,63
758,81	43,07
758,99	46,80
759,17	47,86
759,35	52,95
759,53	49,20
759,71	57,50
759,89	61,31
760,08	67,65
760,26	60,62
760,44	68,83
760,62	72,73
760,80	61,28
760,98	61,31
761,16	71,54
761,34	66,53
761,52	83,19
761,70	108,20
761,88	223,69
762,06	706,49
762,24	2097,83
762,42	4658,78
762,60	7906,20
762,78	11595,96
762,96	14798,45
763,14	16578,76
763,32	16491,65
763,50	14770,08
763,68	12117,85
763,86	8700,24
764,04	5864,41
764,22	3909,86
764,40	2617,48
764,58	1714,89
764,76	1204,63
764,94	866,23
765,12	734,95
765,30	715,07
765,48	870,53
765,66	1061,26
765,84	1299,11
766,02	1426,46
766,20	1472,62
766,38	1370,00
766,56	1198,68
766,74	944,84
766,92	690,58
767,10	480,03
767,28	348,20
767,46	245,52
767,64	197,03
767,82	142,98
768,00	116,92
768,18	101,22
768,36	104,95
768,54	131,57
768,72	214,42
768,90	344,72
769,08	483,13
769,26	601,54
769,44	714,47
769,62	717,53
769,80	689,39
769,98	593,96
770,16	472,88
770,34	346,58
770,52	261,53
770,70	215,97
770,88	263,16
771,06	542,51
771,24	1180,37
771,42	2047,10
771,60	3055,46
771,78	4152,65
771,96	4801,64
772,13	4939,17
772,31	4624,63
772,49	3901,44
772,67	2982,32
772,85	2062,67
773,03	1409,81
773,21	936,50
773,39	654,45
773,57	442,99
773,75	333,79
773,93	234,38
774,11	194,19
774,29	149,52
774,47	134,36
774,64	113,03
774,82	97,81
775,00	81,79
775,18	83,71
775,36	71,88
775,54	71,79
775,72	58,76
775,90	47,59
776,08	45,84
776,26	41,94
776,43	42,94
776,61	38,00
776,79	39,21
776,97	50,44
777,15	44,20
777,33	41,98
777,51	43,39
777,69	35,05
777,87	39,75
778,04	29,32
778,22	32,14
778,40	32,97
778,58	31,81
778,76	34,17
778,94	32,63
779,12	37,15
779,30	34,06
779,47	33,10
779,65	40,69
779,83	35,71
780,01	35,35
780,19	32,17
780,37	28,26
780,55	40,39
780,73	36,58
780,90	34,42
781,08	38,27
781,26	34,58
781,44	34,28
781,62	35,18
781,80	35,68
781,97	34,48
782,15	29,36
782,33	28,10
782,51	30,22
782,69	37,32
782,87	32,31
783,04	29,25
783,22	34,94
783,40	35,79
783,58	29,82
783,76	32,07
783,94	33,79
784,11	26,99
784,29	39,24
784,47	33,16
784,65	31,55
784,83	36,06
785,01	28,21
785,18	28,69
785,36	39,87
785,54	37,93
785,72	38,34
785,90	38,77
786,07	34,08
786,25	33,08
786,43	34,36
786,61	33,56
786,79	37,84
786,96	28,59
787,14	35,34
787,32	35,81
787,50	34,23
787,67	29,30
787,85	29,40
788,03	30,78
788,21	33,79
788,39	42,20
788,56	38,50
788,74	45,29
788,92	44,77
789,10	43,21
789,27	43,57
789,45	33,33
789,63	35,37
789,81	30,96
789,99	35,35
790,16	35,48
790,34	38,45
790,52	36,80
790,70	40,58
790,87	39,92
791,05	31,71
791,23	40,20
791,41	42,08
791,58	40,16
791,76	44,25
791,94	43,29
792,12	28,81
792,29	44,25
792,47	43,28
792,65	41,27
792,82	51,73
793,00	57,45
793,18	76,58
793,36	176,17
793,53	413,60
793,71	808,87
793,89	1274,15
794,07	1790,27
794,24	2202,86
794,42	2350,03
794,60	2282,04
794,77	2015,25
794,95	1632,99
795,13	1191,07
795,31	808,95
795,48	579,51
795,66	397,56
795,84	289,93
796,01	225,25
796,19	161,81
796,37	127,24
796,54	113,17
796,72	99,67
796,90	87,15
797,08	77,19
797,25	72,84
797,43	66,69
797,61	67,93
797,78	65,27
797,96	61,79
798,14	53,04
798,31	65,98
798,49	59,36
798,67	60,68
798,84	60,67
799,02	82,77
799,20	154,40
799,37	292,37
799,55	496,90
799,73	755,20
799,90	1046,91
800,08	1338,87
800,26	1616,41
800,43	1948,23
800,61	2219,08
800,79	2432,75
800,96	2493,64
801,14	2423,61
801,32	2167,57
801,49	1841,31
801,67	1394,24
801,84	1023,56
802,02	701,16
802,20	510,07
802,37	371,36
802,55	279,77
802,73	219,53
802,90	174,36
803,08	150,81
803,26	129,87
803,43	105,86
803,61	107,50
803,78	89,23
803,96	86,20
804,14	84,39
804,31	73,66
804,49	64,95
804,67	68,99
804,84	66,15
805,02	63,41
805,19	60,82
805,37	62,53
805,55	68,65
805,72	59,08
805,90	61,79
806,07	59,75
806,25	58,48
806,43	61,50
806,60	64,27
806,78	69,03
806,95	61,08
807,13	70,14
807,30	63,68
807,48	72,07
807,66	74,94
807,83	76,15
808,01	79,48
808,18	87,16
808,36	96,79
808,54	108,24
808,71	154,45
808,89	251,88
809,06	466,50
809,24	849,59
809,41	1344,84
809,59	1839,31
809,76	2295,74
809,94	2623,53
810,12	3007,44
810,29	3678,40
810,47	4674,14
810,64	5942,50
810,82	7138,21
810,99	8005,62
811,17	8132,25
811,34	7579,19
811,52	6453,15
811,69	5142,15
811,87	3693,95
812,05	2585,14
812,22	1824,02
812,40	1343,06
812,57	977,68
812,75	755,42
812,92	588,84
813,10	471,77
813,27	389,65
813,45	336,21
813,62	286,61
813,80	267,24
813,97	240,32
814,15	223,01
814,32	202,34
814,50	190,10
814,67	176,47
814,85	178,96
815,02	178,77
815,20	178,13
815,37	181,88
815,55	198,16
815,72	213,27
815,90	237,66
816,07	277,25
816,25	328,19
816,42	387,33
816,60	539,12
816,77	917,60
816,95	1818,97
817,12	3468,71
817,30	6009,06
817,47	9034,90
817,65	11952,06
817,82	14083,05
818,00	15299,82
818,17	16378,36
818,35	18081,14
818,52	20245,46
818,70	22843,53
818,87	24760,01
819,04	25710,88
819,22	24368,86
819,39	21722,38
819,57	18101,87
819,74	14159,99
819,92	10212,67
820,09	7331,93
820,27	5318,69
820,44	3966,88
820,62	2935,43
820,79	2291,72
820,96	1776,27
821,14	1448,80
821,31	1143,32
821,49	961,33
821,66	790,78
821,84	684,13
822,01	564,99
822,18	507,05
822,36	410,26
822,53	353,34
822,71	283,75
822,88	244,97
823,06	210,42
823,23	182,90
823,40	148,84
823,58	135,10
823,75	119,05
823,93	113,24
824,10	101,28
824,27	106,53
824,45	102,05
824,62	99,80
824,80	125,38
824,97	160,36
825,14	238,40
825,32	390,36
825,49	595,90
825,67	805,66
825,84	985,33
826,01	1083,71
826,19	1084,57
826,36	1005,80
826,54	877,60
826,71	711,32
826,88	527,35
827,06	383,77
827,23	293,71
827,40	232,59
827,58	179,40
827,75	147,82
827,93	119,93
828,10	104,08
828,27	90,16
828,45	94,52
828,62	69,00
828,79	78,85
828,97	69,33
829,14	62,42
829,31	66,23
829,49	54,84
829,66	47,17
829,83	49,01
830,01	40,39
830,18	41,68
830,35	44,54
830,53	40,83
830,70	39,81
830,87	38,34
831,05	44,91
831,22	46,28
831,39	42,94
831,57	31,46
831,74	31,48
831,91	29,60
832,09	37,68
832,26	44,11
832,43	37,32
832,61	36,49
832,78	35,98
832,95	36,08
833,13	34,93
833,30	40,47
833,47	35,63
833,65	33,57
833,82	21,99
833,99	37,32
834,16	30,80
834,34	37,97
834,51	37,21
834,68	42,31
834,86	38,61
835,03	33,95
835,20	31,76
835,38	33,41
835,55	28,04
835,72	34,63
835,89	29,21
836,07	34,39
836,24	29,19
836,41	36,72
836,58	35,71
836,76	26,69
836,93	28,04
837,10	35,63
837,28	26,34
837,45	34,86
837,62	32,91
837,79	37,18
837,97	41,83
838,14	40,06
838,31	43,20
838,48	40,47
838,66	47,94
838,83	57,77
839,00	66,53
839,17	85,34
839,35	119,24
839,52	184,44
839,69	296,69
839,86	458,71
840,04	654,01
840,21	842,82
840,38	996,95
840,55	1058,86
840,72	1044,45
840,90	1010,61
841,07	940,98
841,24	879,70
841,41	869,24
841,59	953,99
841,76	1107,71
841,93	1264,70
842,10	1371,67
842,27	1351,33
842,45	1300,71
842,62	1169,63
842,79	982,71
842,96	789,15
843,13	584,24
843,31	430,22
843,48	328,24
843,65	265,04
843,82	200,76
843,99	165,37
844,17	141,07
844,34	106,70
844,51	100,79
844,68	79,22
844,85	75,40
845,02	65,03
845,20	50,49
845,37	58,21
845,54	52,81
845,71	46,68
845,88	47,20
846,06	36,04
846,23	28,18
846,40	30,86
846,57	29,96
846,74	26,01
846,91	29,43
847,09	28,20
847,26	20,09
847,43	24,95
847,60	23,95
847,77	23,33
847,94	18,35
848,11	26,64
848,29	24,04
848,46	20,79
848,63	22,21
848,80	16,13
848,97	19,25
849,14	27,84
849,31	29,49
849,49	23,25
849,66	36,09
849,83	12,74
850,00	21,66
850,17	23,71
850,34	17,52
850,51	39,29
850,68	41,67
850,85	62,01
851,03	79,95
851,20	103,00
851,37	158,20
851,54	192,07
851,71	241,80
851,88	274,36
852,05	291,55
852,22	279,22
852,39	264,58
852,57	232,60
852,74	193,42
852,91	147,78
853,08	122,61
853,25	81,78
853,42	67,16
853,59	50,29
853,76	42,33
853,93	40,63
854,10	37,78
854,27	39,26
854,44	32,14
854,62	20,24
854,79	25,24
854,96	26,14
855,13	23,98
855,30	16,67
855,47	23,25
855,64	19,90
855,81	12,57
855,98	16,75
856,15	10,27
856,32	14,32
856,49	8,16
856,66	16,60
856,83	13,11
857,00	12,21
857,17	10,51
857,34	18,05
857,51	11,72
857,69	7,48
857,86	12,65
858,03	14,18
858,20	10,08
858,37	14,98
858,54	14,48
858,71	21,46
858,88	18,31
859,05	13,42
859,22	14,37
859,39	17,97
859,56	17,34
859,73	19,63
859,90	16,19
860,07	15,49
860,24	20,65
860,41	18,24
860,58	17,94
860,75	19,98
860,92	12,35
861,09	17,80
861,26	14,34
861,43	21,58
861,60	21,58
861,77	13,66
861,94	14,92
862,11	19,14
862,28	18,48
862,45	18,45
862,62	4,90
862,79	12,98
862,96	22,02
863,13	22,97
863,30	11,64
863,47	12,65
863,64	15,93
863,81	18,37
863,98	18,98
864,15	13,44
864,32	9,66
864,48	12,59
864,65	10,37
864,82	10,37
864,99	13,22
865,16	9,81
865,33	13,77
865,50	22,06
865,67	21,55
865,84	25,93
866,01	26,09
866,18	29,63
866,35	29,24
866,52	27,11
866,69	34,20
866,86	43,68
867,03	38,09
867,20	39,78
867,37	39,84
867,53	33,74
867,70	27,52
867,87	26,14
868,04	40,85
868,21	15,28
868,38	17,31
868,55	7,36
868,72	21,99
868,89	16,46
869,06	18,04
869,23	15,96
869,40	9,74
869,56	20,29
869,73	10,68
869,90	13,20
870,07	9,28
870,24	14,41
870,41	9,47
870,58	16,24
870,75	5,09
870,92	8,66
871,08	11,00
871,25	23,80
871,42	16,71
871,59	19,03
871,76	16,18
871,93	10,76
872,10	4,58
872,27	17,39
872,43	10,22
872,60	16,79
872,77	24,20
872,94	13,66
873,11	14,35
873,28	19,42
873,45	6,21
873,62	13,61
873,78	6,44
873,95	16,16
874,12	12,65
874,29	12,40
874,46	15,53
874,63	15,60
874,79	5,84
874,96	6,08
875,13	16,23
875,30	13,97
875,47	9,75
875,64	9,83
875,80	4,93
875,97	5,86
876,14	7,44
876,31	10,82
876,48	17,05
876,65	12,21
876,81	4,05
876,98	17,23
877,15	10,40
877,32	16,08
877,49	11,89
877,65	7,48
877,82	16,79
877,99	11,82
878,16	15,93
878,33	15,99
878,49	10,95
878,66	9,59
878,83	6,36
879,00	6,22
879,17	8,18
879,33	17,05
879,50	17,27
879,67	9,48
879,84	12,46
880,01	5,15
880,17	4,54
880,34	4,46
880,51	17,41
880,68	18,61
880,84	7,36
881,01	6,22
881,18	7,96
881,35	11,12
881,52	10,00
881,68	19,93
881,85	10,82
882,02	9,17
882,19	20,16
882,35	11,04
882,52	10,33
882,69	16,68
882,86	13,60
883,02	10,90
883,19	12,10
883,36	3,61
883,53	7,92
883,69	13,39
883,86	15,44
884,03	7,62
884,19	15,03
884,36	12,59
884,53	6,36
884,70	18,73
884,86	14,45
885,03	12,65
885,20	9,83
885,37	3,15
885,53	20,53
885,70	15,30
885,87	15,39
886,03	15,82
886,20	8,55
886,37	10,89
886,54	13,03
886,70	3,72
886,87	8,16
887,04	6,33
887,20	16,21
887,37	9,04
887,54	15,94
887,70	12,26
887,87	12,30
888,04	17,80
888,20	12,65
888,37	12,04
888,54	6,76
888,71	15,06
888,87	10,19
889,04	16,68
889,21	8,79
889,37	12,73
889,54	7,10
889,71	18,15
889,87	4,71
890,04	6,63
890,21	6,63
890,37	6,63
890,54	6,63
890,71	6,63
890,87	6,63
