SpectraSuite Datei
++++++++++++++++++++++++++++++++++++
Datum: Wed Feb 24 10:54:07 CET 2016
Benutzer: Praktikum-Pc1
Dark-Spektrum vorhanden: Ja
Referenz-Spektrum vorhanden: Nein
Zahl der probierten Teilspektren: 1
Spektrometer: USB4F04607
Integrationszeit (usec): 30000 (USB4F04607)
Spektren Durchschnitt berechnet: 130 (USB4F04607)
Boxcar Glättung: 0 (USB4F04607)
Dunkelstromkorrektur: Nein (USB4F04607)
Puls/Lampe aktiviert: Nein (USB4F04607)
Correct for Detector Non-linearity: Nein (USB4F04607)
Streulichtkorrektur: Nein (USB4F04607)
Anzahl Pixel in verarbeitetem Spektrum: 3648
>>>>>Begin Processed Spectral Data<<<<<
177,66	-2,43
177,88	-2,43
178,10	-2,43
178,32	-2,06
178,53	10,08
178,75	0,20
178,97	0,63
179,19	2,88
179,40	5,48
179,62	-3,15
179,84	-1,20
180,05	8,79
180,27	0,74
180,49	5,09
180,71	-5,39
180,92	0,90
181,14	29,82
181,36	43,37
181,58	56,89
181,79	41,73
182,01	37,57
182,23	45,21
182,44	38,50
182,66	41,05
182,88	35,00
183,10	37,29
183,31	40,69
183,53	46,68
183,75	45,62
183,96	48,90
184,18	36,34
184,40	46,00
184,62	49,48
184,83	53,47
185,05	38,56
185,27	42,72
185,48	42,94
185,70	47,17
185,92	39,23
186,14	40,01
186,35	57,17
186,57	47,01
186,79	38,77
187,00	43,64
187,22	40,16
187,44	48,49
187,66	43,76
187,87	40,46
188,09	49,94
188,31	47,37
188,52	51,80
188,74	47,04
188,96	43,15
189,17	41,61
189,39	45,31
189,61	45,50
189,82	38,96
190,04	39,13
190,26	43,54
190,48	50,41
190,69	46,24
190,91	52,00
191,13	50,62
191,34	36,60
191,56	41,13
191,78	47,84
191,99	52,05
192,21	46,95
192,43	42,99
192,64	47,39
192,86	47,78
193,08	37,43
193,29	41,51
193,51	45,10
193,73	37,68
193,94	44,82
194,16	41,24
194,38	42,87
194,60	42,57
194,81	42,14
195,03	42,35
195,25	52,96
195,46	50,18
195,68	43,13
195,90	44,30
196,11	40,31
196,33	39,43
196,55	42,60
196,76	44,27
196,98	42,77
197,20	38,41
197,41	45,40
197,63	43,98
197,85	40,47
198,06	43,39
198,28	48,51
198,50	40,33
198,71	46,32
198,93	48,93
199,14	45,12
199,36	43,83
199,58	45,06
199,79	47,42
200,01	45,09
200,23	47,92
200,44	41,53
200,66	50,82
200,88	39,19
201,09	48,41
201,31	36,00
201,53	44,74
201,74	37,48
201,96	43,48
202,18	41,87
202,39	39,98
202,61	33,05
202,83	45,48
203,04	40,98
203,26	41,98
203,47	43,12
203,69	39,54
203,91	46,76
204,12	47,50
204,34	37,68
204,56	46,61
204,77	52,11
204,99	40,80
205,21	44,05
205,42	34,56
205,64	46,54
205,85	45,84
206,07	40,69
206,29	43,39
206,50	42,31
206,72	44,76
206,94	44,13
207,15	42,47
207,37	42,16
207,58	40,20
207,80	48,10
208,02	48,30
208,23	47,47
208,45	44,08
208,67	41,65
208,88	40,75
209,10	45,12
209,31	42,66
209,53	38,79
209,75	40,94
209,96	41,98
210,18	43,34
210,40	31,22
210,61	36,39
210,83	42,96
211,04	41,56
211,26	44,03
211,48	44,69
211,69	39,57
211,91	41,23
212,12	43,73
212,34	43,67
212,56	37,79
212,77	39,92
212,99	47,83
213,20	52,63
213,42	42,42
213,64	43,07
213,85	38,11
214,07	41,90
214,28	47,95
214,50	44,96
214,72	44,49
214,93	33,54
215,15	34,28
215,36	48,17
215,58	44,74
215,80	43,28
216,01	45,10
216,23	44,88
216,44	46,82
216,66	48,38
216,88	50,58
217,09	40,96
217,31	42,14
217,52	42,16
217,74	45,92
217,95	34,59
218,17	44,96
218,39	39,97
218,60	36,19
218,82	51,91
219,03	54,05
219,25	45,24
219,47	47,21
219,68	44,31
219,90	40,79
220,11	40,91
220,33	45,84
220,54	38,66
220,76	48,90
220,98	47,32
221,19	55,77
221,41	47,86
221,62	40,64
221,84	45,87
222,05	41,42
222,27	45,35
222,48	46,49
222,70	45,70
222,92	47,12
223,13	51,78
223,35	39,24
223,56	42,74
223,78	42,96
223,99	41,51
224,21	43,43
224,43	51,66
224,64	55,00
224,86	53,36
225,07	44,96
225,29	43,78
225,50	44,60
225,72	44,24
225,93	37,48
226,15	45,34
226,37	44,49
226,58	46,02
226,80	41,62
227,01	46,50
227,23	46,57
227,44	44,25
227,66	45,32
227,87	51,51
228,09	48,38
228,30	38,85
228,52	46,85
228,74	58,16
228,95	47,56
229,17	57,26
229,38	62,68
229,60	40,38
229,81	50,95
230,03	46,99
230,24	51,23
230,46	48,03
230,67	44,61
230,89	44,20
231,10	52,14
231,32	57,04
231,53	41,87
231,75	46,39
231,97	46,96
232,18	50,25
232,40	44,77
232,61	47,17
232,83	55,86
233,04	54,55
233,26	52,52
233,47	50,44
233,69	52,18
233,90	49,36
234,12	50,88
234,33	53,78
234,55	60,42
234,76	63,53
234,98	73,68
235,19	68,54
235,41	72,42
235,62	80,04
235,84	78,53
236,05	80,89
236,27	86,00
236,48	97,61
236,70	94,18
236,91	97,09
237,13	87,59
237,34	99,26
237,56	89,46
237,77	97,69
237,99	105,28
238,20	107,85
238,42	112,23
238,63	98,78
238,85	95,25
239,06	103,12
239,28	109,85
239,49	99,20
239,71	94,77
239,92	105,23
240,14	99,97
240,35	105,75
240,57	115,33
240,78	103,64
241,00	107,09
241,21	105,41
241,43	108,61
241,64	116,25
241,86	111,61
242,07	110,62
242,29	104,13
242,50	106,29
242,72	112,87
242,93	108,35
243,15	111,80
243,36	103,64
243,58	105,96
243,79	115,05
244,01	112,02
244,22	119,90
244,44	117,43
244,65	114,83
244,87	120,72
245,08	115,55
245,29	119,98
245,51	122,04
245,72	122,22
245,94	126,09
246,15	120,28
246,37	126,55
246,58	126,77
246,80	124,88
247,01	129,68
247,23	129,16
247,44	128,72
247,66	126,71
247,87	127,97
248,09	132,31
248,30	121,38
248,51	128,00
248,73	122,30
248,94	127,16
249,16	132,25
249,37	132,60
249,59	130,60
249,80	132,08
250,02	127,94
250,23	128,45
250,45	127,90
250,66	137,50
250,87	132,99
251,09	137,26
251,30	128,00
251,52	120,94
251,73	131,65
251,95	124,00
252,16	133,32
252,38	120,44
252,59	125,92
252,80	119,43
253,02	126,06
253,23	121,89
253,45	130,87
253,66	124,93
253,88	131,32
254,09	122,56
254,30	124,17
254,52	127,18
254,73	131,45
254,95	124,33
255,16	125,24
255,38	125,89
255,59	124,04
255,80	132,24
256,02	122,50
256,23	137,07
256,45	116,01
256,66	124,36
256,88	128,01
257,09	119,37
257,30	115,54
257,52	123,08
257,73	129,21
257,95	116,04
258,16	123,76
258,38	127,26
258,59	118,88
258,80	124,04
259,02	124,01
259,23	120,66
259,45	124,39
259,66	116,45
259,87	126,33
260,09	122,61
260,30	118,75
260,52	116,26
260,73	113,95
260,94	119,73
261,16	116,75
261,37	112,62
261,59	118,69
261,80	120,64
262,01	111,77
262,23	115,46
262,44	131,07
262,66	130,28
262,87	121,24
263,08	126,93
263,30	123,93
263,51	130,27
263,73	131,39
263,94	116,81
264,15	124,04
264,37	124,55
264,58	124,66
264,80	126,27
265,01	128,23
265,22	117,03
265,44	114,97
265,65	122,69
265,86	131,76
266,08	120,23
266,29	128,94
266,51	120,92
266,72	126,99
266,93	127,16
267,15	123,18
267,36	134,46
267,58	118,61
267,79	124,28
268,00	123,89
268,22	128,64
268,43	133,65
268,64	129,43
268,86	125,76
269,07	126,85
269,28	120,81
269,50	123,16
269,71	119,60
269,93	119,55
270,14	126,53
270,35	113,52
270,57	123,78
270,78	115,24
270,99	124,56
271,21	106,53
271,42	101,78
271,63	107,66
271,85	103,74
272,06	97,20
272,28	96,48
272,49	81,21
272,70	80,03
272,92	77,04
273,13	70,53
273,34	59,61
273,56	59,38
273,77	52,79
273,98	52,66
274,20	50,87
274,41	40,49
274,62	40,86
274,84	40,90
275,05	57,00
275,26	58,59
275,48	60,70
275,69	55,04
275,90	48,38
276,12	51,14
276,33	42,16
276,54	43,07
276,76	48,58
276,97	42,03
277,18	57,45
277,40	44,43
277,61	44,50
277,82	54,96
278,04	51,15
278,25	49,58
278,46	45,75
278,68	48,16
278,89	53,31
279,10	57,71
279,32	51,86
279,53	47,99
279,74	56,54
279,96	48,74
280,17	56,35
280,38	51,45
280,60	49,17
280,81	55,53
281,02	54,95
281,24	55,14
281,45	51,39
281,66	60,76
281,88	49,97
282,09	52,73
282,30	59,15
282,52	51,34
282,73	50,52
282,94	59,36
283,15	71,11
283,37	75,76
283,58	96,43
283,79	89,28
284,01	84,38
284,22	83,34
284,43	72,01
284,65	65,44
284,86	60,04
285,07	55,31
285,28	48,90
285,50	55,31
285,71	60,30
285,92	47,84
286,14	50,57
286,35	49,92
286,56	52,38
286,77	52,38
286,99	50,82
287,20	60,26
287,41	51,29
287,63	52,35
287,84	53,48
288,05	60,30
288,27	48,52
288,48	48,10
288,69	44,50
288,90	57,93
289,12	51,96
289,33	50,32
289,54	50,32
289,75	51,17
289,97	60,04
290,18	50,76
290,39	57,75
290,61	46,55
290,82	59,41
291,03	56,62
291,24	57,58
291,46	52,76
291,67	49,84
291,88	44,82
292,09	45,48
292,31	56,43
292,52	52,43
292,73	62,56
292,95	45,10
293,16	50,77
293,37	51,37
293,58	58,21
293,80	59,06
294,01	55,33
294,22	53,23
294,43	61,42
294,65	51,23
294,86	48,21
295,07	58,49
295,28	52,22
295,50	45,67
295,71	54,74
295,92	54,00
296,13	52,68
296,35	55,20
296,56	61,08
296,77	57,89
296,98	53,44
297,20	54,24
297,41	64,92
297,62	53,64
297,83	54,33
298,05	57,83
298,26	61,82
298,47	64,76
298,68	54,44
298,89	59,44
299,11	54,22
299,32	54,70
299,53	59,75
299,74	63,23
299,96	54,08
300,17	53,63
300,38	58,24
300,59	64,31
300,81	57,55
301,02	58,70
301,23	59,55
301,44	58,16
301,65	54,03
301,87	56,67
302,08	60,53
302,29	62,86
302,50	68,39
302,72	58,13
302,93	56,41
303,14	66,80
303,35	71,57
303,56	75,60
303,78	90,76
303,99	98,46
304,20	104,12
304,41	95,55
304,62	80,45
304,84	72,28
305,05	76,11
305,26	69,73
305,47	62,51
305,68	62,60
305,90	60,53
306,11	60,56
306,32	57,63
306,53	56,71
306,74	66,70
306,96	59,20
307,17	63,17
307,38	68,86
307,59	68,89
307,80	70,97
308,02	61,99
308,23	66,94
308,44	61,69
308,65	62,83
308,86	64,31
309,08	57,56
309,29	57,91
309,50	66,34
309,71	67,14
309,92	61,34
310,13	57,94
310,35	63,49
310,56	59,71
310,77	65,61
310,98	73,00
311,19	69,77
311,41	72,25
311,62	69,47
311,83	72,83
312,04	78,88
312,25	68,61
312,46	78,44
312,68	64,78
312,89	70,42
313,10	71,58
313,31	66,05
313,52	77,40
313,73	78,93
313,95	73,65
314,16	72,45
314,37	75,77
314,58	80,39
314,79	80,77
315,00	80,58
315,22	79,90
315,43	78,96
315,64	82,00
315,85	78,74
316,06	82,11
316,27	74,40
316,48	83,16
316,70	82,50
316,91	79,63
317,12	89,31
317,33	85,10
317,54	82,16
317,75	88,79
317,97	87,86
318,18	89,65
318,39	91,92
318,60	84,64
318,81	93,88
319,02	92,33
319,23	103,94
319,45	98,89
319,66	108,35
319,87	105,99
320,08	110,98
320,29	106,81
320,50	102,21
320,71	108,90
320,92	110,32
321,14	116,40
321,35	119,41
321,56	123,04
321,77	120,74
321,98	124,83
322,19	124,86
322,40	143,11
322,61	149,31
322,83	140,79
323,04	130,14
323,25	146,49
323,46	146,71
323,67	155,36
323,88	168,01
324,09	168,34
324,30	167,84
324,52	191,69
324,73	178,00
324,94	200,78
325,15	206,72
325,36	209,48
325,57	215,01
325,78	235,06
325,99	255,82
326,20	271,88
326,41	278,29
326,63	293,14
326,84	309,67
327,05	337,06
327,26	341,59
327,47	353,15
327,68	370,34
327,89	402,19
328,10	443,87
328,31	499,88
328,52	610,58
328,74	909,68
328,95	1624,40
329,16	3603,21
329,37	7479,31
329,58	11755,61
329,79	13842,30
330,00	14395,98
330,21	12965,19
330,42	9275,38
330,63	4869,82
330,84	2547,67
331,06	1523,59
331,27	1035,06
331,48	755,89
331,69	627,23
331,90	526,25
332,11	462,20
332,32	415,47
332,53	384,72
332,74	351,84
332,95	340,56
333,16	321,07
333,37	303,78
333,58	289,08
333,79	287,38
334,01	268,19
334,22	260,20
334,43	253,59
334,64	237,78
334,85	229,20
335,06	224,30
335,27	213,71
335,48	201,90
335,69	186,43
335,90	180,65
336,11	177,59
336,32	176,33
336,53	172,05
336,74	157,24
336,95	156,72
337,16	153,44
337,37	151,25
337,59	146,59
337,80	147,88
338,01	141,91
338,22	132,41
338,43	142,79
338,64	137,89
338,85	140,77
339,06	136,58
339,27	123,65
339,48	116,91
339,69	124,00
339,90	134,02
340,11	119,65
340,32	123,87
340,53	120,48
340,74	116,25
340,95	121,59
341,16	112,86
341,37	113,10
341,58	112,59
341,79	110,70
342,00	109,99
342,21	107,53
342,42	120,34
342,63	111,52
342,84	117,54
343,05	104,49
343,26	100,90
343,48	101,61
343,69	103,72
343,90	107,19
344,11	108,01
344,32	93,70
344,53	102,76
344,74	97,25
344,95	99,42
345,16	98,96
345,37	113,84
345,58	102,19
345,79	95,78
346,00	100,62
346,21	96,07
346,42	97,18
346,63	104,51
346,84	93,80
347,05	89,12
347,26	95,50
347,47	98,08
347,68	98,62
347,89	96,02
348,10	91,78
348,31	104,97
348,52	102,93
348,73	95,18
348,94	100,98
349,15	90,19
349,36	100,41
349,57	96,02
349,78	98,52
349,99	100,49
350,20	103,20
350,41	97,42
350,62	99,63
350,83	97,96
351,04	92,17
351,25	99,39
351,45	93,21
351,66	92,27
351,87	98,73
352,08	99,52
352,29	86,16
352,50	101,15
352,71	96,60
352,92	101,23
353,13	96,19
353,34	95,25
353,55	93,04
353,76	98,43
353,97	96,03
354,18	95,25
354,39	97,94
354,60	98,38
354,81	110,09
355,02	109,38
355,23	108,27
355,44	99,93
355,65	109,25
355,86	98,59
356,07	109,42
356,28	101,09
356,49	106,42
356,70	94,76
356,91	95,04
357,12	94,93
357,32	94,06
357,53	102,24
357,74	97,92
357,95	113,50
358,16	105,90
358,37	113,68
358,58	121,44
358,79	123,56
359,00	121,60
359,21	120,70
359,42	105,79
359,63	108,94
359,84	109,11
360,05	103,20
360,26	102,92
360,47	96,16
360,68	102,52
360,88	98,74
361,09	99,22
361,30	100,24
361,51	102,41
361,72	98,37
361,93	97,99
362,14	91,69
362,35	97,72
362,56	97,48
362,77	103,85
362,98	103,23
363,19	89,02
363,40	100,15
363,60	99,85
363,81	109,96
364,02	112,53
364,23	105,36
364,44	111,09
364,65	109,79
364,86	103,22
365,07	115,49
365,28	101,06
365,49	98,43
365,70	107,83
365,91	104,43
366,11	96,70
366,32	102,49
366,53	100,16
366,74	99,11
366,95	100,27
367,16	99,07
367,37	95,83
367,58	99,04
367,79	111,55
368,00	98,82
368,20	99,07
368,41	101,74
368,62	104,70
368,83	111,31
369,04	110,45
369,25	95,94
369,46	108,26
369,67	116,72
369,88	102,51
370,08	100,02
370,29	106,43
370,50	102,71
370,71	103,42
370,92	102,54
371,13	102,84
371,34	106,26
371,55	101,64
371,75	99,88
371,96	104,05
372,17	103,39
372,38	116,95
372,59	102,24
372,80	102,52
373,01	107,93
373,22	110,83
373,42	107,90
373,63	106,49
373,84	100,84
374,05	104,65
374,26	101,52
374,47	101,99
374,68	103,01
374,88	105,99
375,09	94,40
375,30	104,67
375,51	107,23
375,72	107,01
375,93	101,36
376,14	96,22
376,34	114,20
376,55	106,84
376,76	105,79
376,97	100,33
377,18	97,09
377,39	99,00
377,59	105,45
377,80	103,71
378,01	100,08
378,22	116,06
378,43	104,38
378,64	104,73
378,85	99,70
379,05	99,23
379,26	102,41
379,47	104,10
379,68	107,86
379,89	105,68
380,10	102,75
380,30	101,71
380,51	104,84
380,72	101,80
380,93	102,65
381,14	116,14
381,34	105,28
381,55	105,47
381,76	102,57
381,97	105,19
382,18	108,76
382,39	100,71
382,59	112,61
382,80	110,50
383,01	108,07
383,22	100,19
383,43	106,68
383,63	100,13
383,84	105,42
384,05	98,65
384,26	105,69
384,47	104,59
384,68	97,55
384,88	98,71
385,09	101,67
385,30	103,77
385,51	107,82
385,72	108,18
385,92	107,74
386,13	102,57
386,34	103,01
386,55	99,20
386,76	100,92
386,96	103,58
387,17	107,30
387,38	106,97
387,59	108,54
387,79	107,99
388,00	99,58
388,21	97,17
388,42	99,22
388,63	101,20
388,83	103,22
389,04	108,34
389,25	102,16
389,46	101,77
389,67	100,84
389,87	97,61
390,08	103,12
390,29	98,57
390,50	104,79
390,70	101,99
390,91	104,38
391,12	112,31
391,33	114,53
391,53	98,44
391,74	110,76
391,95	111,35
392,16	112,62
392,37	109,46
392,57	110,21
392,78	113,60
392,99	103,22
393,20	109,38
393,40	106,13
393,61	115,63
393,82	136,19
394,03	140,33
394,23	140,52
394,44	151,20
394,65	149,04
394,86	142,90
395,06	123,98
395,27	118,81
395,48	113,11
395,69	106,01
395,89	105,56
396,10	103,83
396,31	100,04
396,52	105,96
396,72	111,44
396,93	105,20
397,14	112,92
397,35	113,46
397,55	110,05
397,76	111,91
397,97	103,53
398,18	112,09
398,38	102,92
398,59	110,39
398,80	106,83
399,00	109,57
399,21	101,55
399,42	104,97
399,63	109,33
399,83	102,48
400,04	107,79
400,25	109,25
400,46	111,44
400,66	106,27
400,87	105,41
401,08	107,44
401,28	111,91
401,49	112,95
401,70	111,06
401,91	118,31
402,11	118,39
402,32	108,10
402,53	117,02
402,73	104,12
402,94	109,63
403,15	128,79
403,35	138,03
403,56	162,17
403,77	161,52
403,98	175,18
404,18	184,41
404,39	164,14
404,60	149,63
404,80	139,15
405,01	120,23
405,22	130,71
405,42	112,06
405,63	117,74
405,84	116,81
406,05	105,53
406,25	117,76
406,46	110,05
406,67	123,68
406,87	104,93
407,08	111,60
407,29	117,25
407,49	118,44
407,70	117,29
407,91	112,45
408,11	115,22
408,32	125,13
408,53	119,19
408,73	125,51
408,94	121,62
409,15	125,13
409,35	129,78
409,56	116,53
409,77	118,10
409,97	117,95
410,18	128,93
410,39	110,56
410,59	122,00
410,80	123,26
411,01	123,22
411,21	119,93
411,42	129,70
411,63	118,88
411,83	115,11
412,04	124,19
412,25	120,58
412,45	121,30
412,66	128,55
412,87	119,87
413,07	125,75
413,28	124,61
413,49	132,94
413,69	121,95
413,90	131,62
414,11	136,33
414,31	144,87
414,52	172,60
414,72	221,46
414,93	294,83
415,14	377,42
415,34	437,78
415,55	456,76
415,76	447,91
415,96	383,49
416,17	279,63
416,38	227,03
416,58	184,43
416,79	174,66
416,99	153,01
417,20	155,50
417,41	163,14
417,61	189,86
417,82	195,69
418,03	211,07
418,23	235,34
418,44	271,86
418,64	293,40
418,85	358,73
419,06	414,87
419,26	491,91
419,47	519,54
419,67	523,24
419,88	475,32
420,09	398,01
420,29	301,81
420,50	225,25
420,71	182,54
420,91	162,39
421,12	144,02
421,32	145,99
421,53	143,55
421,74	136,32
421,94	134,57
422,15	129,37
422,35	137,92
422,56	140,88
422,77	142,18
422,97	134,69
423,18	136,57
423,38	148,45
423,59	141,66
423,80	139,75
424,00	150,12
424,21	151,20
424,41	145,96
424,62	168,36
424,82	177,02
425,03	197,08
425,24	219,92
425,44	244,73
425,65	260,14
425,85	274,41
426,06	286,61
426,26	293,77
426,47	295,47
426,68	303,30
426,88	273,29
427,09	257,63
427,29	226,69
427,50	187,59
427,70	165,89
427,91	158,40
428,12	152,62
428,32	141,39
428,53	144,48
428,73	146,89
428,94	172,25
429,14	181,58
429,35	200,92
429,56	214,83
429,76	210,48
429,97	192,71
430,17	184,32
430,38	158,20
430,58	151,96
430,79	143,92
430,99	151,41
431,20	148,93
431,40	144,65
431,61	158,69
431,82	160,95
432,02	164,17
432,23	190,38
432,43	205,29
432,64	229,78
432,84	243,71
433,05	247,88
433,25	243,02
433,46	238,56
433,66	217,76
433,87	196,32
434,07	188,08
434,28	183,31
434,49	166,18
434,69	159,16
434,90	163,54
435,10	153,47
435,31	149,93
435,51	143,91
435,72	140,30
435,92	141,83
436,13	136,57
436,33	145,63
436,54	146,86
436,74	147,61
436,95	141,70
437,15	144,29
437,36	141,86
437,56	159,02
437,77	147,42
437,97	162,91
438,18	158,95
438,38	168,06
438,59	182,43
438,79	176,94
439,00	170,15
439,20	173,35
439,41	162,94
439,61	154,95
439,82	158,99
440,02	150,70
440,23	144,15
440,43	139,96
440,64	144,76
440,84	145,53
441,05	144,07
441,25	147,08
441,46	149,88
441,66	148,54
441,87	155,52
442,07	157,27
442,28	153,83
442,48	159,52
442,69	150,75
442,89	141,85
443,10	150,05
443,30	150,65
443,51	151,17
443,71	147,39
443,92	147,85
444,12	152,54
444,32	144,49
444,53	150,15
444,73	151,11
444,94	147,15
445,14	151,74
445,35	155,58
445,55	146,79
445,76	149,99
445,96	153,22
446,17	151,77
446,37	152,02
446,58	159,54
446,78	150,92
446,98	159,84
447,19	157,77
447,39	143,44
447,60	149,91
447,80	157,06
448,01	163,96
448,21	166,94
448,42	179,26
448,62	200,53
448,82	225,37
449,03	237,11
449,23	259,05
449,44	249,69
449,64	246,53
449,85	222,65
450,05	215,68
450,26	204,77
450,46	204,92
450,66	201,06
450,87	211,16
451,07	202,72
451,28	190,05
451,48	190,41
451,69	179,98
451,89	180,02
452,09	171,32
452,30	168,34
452,50	169,30
452,71	160,81
452,91	167,82
453,12	177,97
453,32	177,65
453,52	181,70
453,73	183,89
453,93	196,78
454,14	192,08
454,34	196,73
454,54	214,56
454,75	225,20
454,95	232,41
455,16	228,77
455,36	226,44
455,56	221,59
455,77	193,97
455,97	191,37
456,18	179,42
456,38	172,47
456,58	177,37
456,79	167,62
456,99	176,72
457,20	162,86
457,40	165,74
457,60	158,86
457,81	158,88
458,01	175,50
458,22	181,02
458,42	175,02
458,62	180,54
458,83	192,18
459,03	197,91
459,23	207,27
459,44	199,85
459,64	201,16
459,85	189,41
460,05	190,00
460,25	182,49
460,46	170,61
460,66	179,58
460,86	164,29
461,07	171,93
461,27	160,95
461,48	166,69
461,68	180,57
461,88	179,31
462,09	182,98
462,29	172,52
462,49	184,55
462,70	181,69
462,90	184,38
463,10	189,45
463,31	190,62
463,51	185,83
463,72	181,54
463,92	184,96
464,12	182,52
464,33	180,57
464,53	189,83
464,73	192,04
464,94	201,44
465,14	221,91
465,34	265,78
465,55	329,16
465,75	414,41
465,95	507,64
466,16	603,58
466,36	655,08
466,56	623,40
466,77	578,69
466,97	481,78
467,17	369,12
467,38	284,95
467,58	236,24
467,78	219,67
467,99	196,54
468,19	196,24
468,39	193,27
468,60	189,31
468,80	194,01
469,00	199,28
469,21	198,76
469,41	207,11
469,61	207,27
469,82	221,75
470,02	217,83
470,22	203,69
470,42	206,14
470,63	203,90
470,83	191,64
471,03	205,02
471,24	197,09
471,44	200,98
471,64	194,10
471,85	198,92
472,05	203,52
472,25	212,42
472,46	202,69
472,66	204,18
472,86	199,98
473,06	210,33
473,27	213,19
473,47	219,02
473,67	246,37
473,88	267,35
474,08	305,78
474,28	334,65
474,48	371,42
474,69	370,59
474,89	371,55
475,09	344,91
475,30	312,93
475,50	268,95
475,70	249,55
475,90	240,27
476,11	230,77
476,31	234,05
476,51	218,66
476,72	216,28
476,92	226,38
477,12	220,85
477,32	225,17
477,53	222,00
477,73	217,70
477,93	227,62
478,13	232,96
478,34	232,26
478,54	242,57
478,74	233,06
478,94	230,16
479,15	249,36
479,35	229,28
479,55	233,55
479,75	247,19
479,96	233,25
480,16	238,05
480,36	230,40
480,57	242,75
480,77	240,76
480,97	244,04
481,17	247,30
481,37	245,47
481,58	246,83
481,78	240,98
481,98	248,59
482,18	261,19
482,39	252,85
482,59	237,39
482,79	257,90
482,99	262,39
483,20	257,37
483,40	267,75
483,60	272,92
483,80	279,66
484,01	276,33
484,21	281,36
484,41	263,29
484,61	273,42
484,81	275,86
485,02	277,22
485,22	267,73
485,42	276,98
485,62	269,61
485,83	272,03
486,03	284,42
486,23	279,72
486,43	281,83
486,63	290,64
486,84	289,98
487,04	290,43
487,24	294,50
487,44	299,54
487,64	307,26
487,85	307,72
488,05	308,22
488,25	316,93
488,45	316,19
488,65	321,25
488,86	330,84
489,06	313,51
489,26	300,44
489,46	299,43
489,66	307,37
489,87	291,39
490,07	286,02
490,27	292,06
490,47	292,78
490,67	289,47
490,88	301,11
491,08	305,30
491,28	310,69
491,48	311,54
491,68	321,64
491,88	321,00
492,09	339,44
492,29	351,08
492,49	380,47
492,69	403,32
492,89	430,97
493,09	435,48
493,30	441,35
493,50	425,43
493,70	406,08
493,90	385,21
494,10	358,93
494,30	367,03
494,51	360,38
494,71	370,30
494,91	364,40
495,11	365,83
495,31	367,12
495,51	373,08
495,72	367,70
495,92	391,59
496,12	414,97
496,32	505,99
496,52	758,57
496,72	1261,34
496,92	2076,86
497,13	3200,47
497,33	4460,05
497,53	5627,64
497,73	6267,62
497,93	6460,79
498,13	5765,79
498,33	4660,58
498,54	3377,87
498,74	2265,65
498,94	1449,55
499,14	979,72
499,34	756,83
499,54	608,89
499,74	535,13
499,94	485,49
500,15	456,74
500,35	426,94
500,55	422,48
500,75	417,34
500,95	405,37
501,15	405,58
501,35	403,09
501,55	396,90
501,76	397,27
501,96	393,89
502,16	386,97
502,36	388,48
502,56	382,17
502,76	374,56
502,96	380,15
503,16	376,21
503,36	377,00
503,57	383,62
503,77	390,48
503,97	383,98
504,17	393,16
504,37	393,26
504,57	402,21
504,77	406,29
504,97	409,94
505,17	411,83
505,37	395,68
505,57	403,45
505,78	395,87
505,98	390,23
506,18	385,87
506,38	383,73
506,58	393,34
506,78	388,70
506,98	388,52
507,18	384,25
507,38	391,46
507,58	400,72
507,78	392,61
507,98	395,78
508,19	397,95
508,39	405,55
508,59	417,94
508,79	418,12
508,99	424,64
509,19	421,06
509,39	419,33
509,59	425,24
509,79	435,43
509,99	433,70
510,19	441,62
510,39	440,96
510,59	432,64
510,79	435,59
510,99	430,61
511,19	424,37
511,39	433,19
511,60	435,35
511,80	436,22
512,00	437,07
512,20	439,68
512,40	419,98
512,60	430,61
512,80	430,31
513,00	447,72
513,20	454,46
513,40	489,48
513,60	593,83
513,80	756,27
514,00	1026,32
514,20	1389,97
514,40	1786,63
514,60	2083,52
514,80	2299,07
515,00	2286,24
515,20	2111,55
515,40	1795,22
515,60	1418,49
515,80	1087,72
516,00	833,84
516,20	686,16
516,40	603,28
516,60	557,47
516,80	516,47
517,00	500,19
517,20	498,30
517,40	494,63
517,60	481,30
517,80	501,99
518,00	505,64
518,20	522,42
518,40	526,49
518,60	532,53
518,80	528,72
519,00	532,93
519,20	508,49
519,40	509,09
519,60	491,43
519,80	501,53
520,00	503,41
520,20	499,81
520,40	499,55
520,60	495,26
520,80	499,53
521,00	504,40
521,20	512,58
521,40	515,96
521,60	525,73
521,80	525,34
522,00	531,61
522,20	532,80
522,40	532,82
522,60	516,31
522,80	507,71
523,00	512,43
523,20	511,36
523,40	509,41
523,60	517,99
523,80	526,09
524,00	528,31
524,20	532,03
524,40	526,69
524,60	543,36
524,80	546,49
525,00	541,97
525,20	550,76
525,40	550,92
525,60	540,71
525,80	539,10
526,00	533,91
526,20	530,80
526,40	529,83
526,60	534,90
526,79	536,22
526,99	539,23
527,19	541,88
527,39	539,78
527,59	554,48
527,79	546,87
527,99	553,80
528,19	559,17
528,39	562,70
528,59	561,76
528,79	566,37
528,99	572,56
529,19	573,24
529,39	577,57
529,59	576,46
529,79	577,10
529,98	589,12
530,18	584,82
530,38	595,49
530,58	590,54
530,78	584,54
530,98	602,97
531,18	594,19
531,38	601,63
531,58	601,79
531,78	599,88
531,98	604,92
532,18	613,52
532,37	607,24
532,57	605,25
532,77	614,75
532,97	615,45
533,17	636,59
533,37	625,58
533,57	626,99
533,77	632,98
533,97	620,46
534,17	623,72
534,37	616,99
534,56	617,40
534,76	614,17
534,96	619,09
535,16	625,73
535,36	612,86
535,56	630,70
535,76	619,51
535,96	619,49
536,16	627,14
536,35	618,79
536,55	635,89
536,75	638,81
536,95	643,19
537,15	652,66
537,35	651,30
537,55	666,13
537,75	675,20
537,94	674,08
538,14	683,47
538,34	707,86
538,54	712,03
538,74	697,54
538,94	708,35
539,14	717,78
539,34	720,52
539,53	726,81
539,73	719,20
539,93	735,38
540,13	718,88
540,33	731,96
540,53	729,75
540,73	731,85
540,92	724,40
541,12	734,92
541,32	728,32
541,52	740,89
541,72	759,97
541,92	762,14
542,11	752,83
542,31	770,16
542,51	780,84
542,71	778,37
542,91	794,11
543,11	802,85
543,30	819,42
543,50	830,28
543,70	853,01
543,90	855,45
544,10	870,18
544,30	878,34
544,49	893,62
544,69	907,96
544,89	908,76
545,09	916,75
545,29	913,46
545,49	927,21
545,68	919,76
545,88	909,16
546,08	930,05
546,28	923,24
546,48	925,40
546,67	935,59
546,87	949,61
547,07	959,02
547,27	944,52
547,47	961,02
547,67	980,27
547,86	999,06
548,06	1029,31
548,26	1070,02
548,46	1085,31
548,66	1122,29
548,85	1159,36
549,05	1170,38
549,25	1168,37
549,45	1165,59
549,65	1147,43
549,84	1160,66
550,04	1169,25
550,24	1175,90
550,44	1196,36
550,63	1239,27
550,83	1263,57
551,03	1284,01
551,23	1310,21
551,43	1349,99
551,62	1349,94
551,82	1369,63
552,02	1396,56
552,22	1416,08
552,41	1439,22
552,61	1452,45
552,81	1464,69
553,01	1476,59
553,21	1475,96
553,40	1486,92
553,60	1493,79
553,80	1529,06
554,00	1536,72
554,19	1559,21
554,39	1591,73
554,59	1601,53
554,79	1624,80
554,98	1661,15
555,18	1694,98
555,38	1736,52
555,58	1760,99
555,77	1789,25
555,97	1793,53
556,17	1799,74
556,37	1816,99
556,56	1867,42
556,76	1877,40
556,96	1899,07
557,16	1897,73
557,35	1942,03
557,55	1931,96
557,75	1986,91
557,95	2010,85
558,14	2039,43
558,34	2073,02
558,54	2077,76
558,73	2132,53
558,93	2135,84
559,13	2187,34
559,33	2228,19
559,52	2261,19
559,72	2317,10
559,92	2366,41
560,12	2385,21
560,31	2411,67
560,51	2464,12
560,71	2492,17
560,90	2527,87
561,10	2549,53
561,30	2571,89
561,50	2621,53
561,69	2674,69
561,89	2709,73
562,09	2756,46
562,28	2774,13
562,48	2831,30
562,68	2892,28
562,87	2928,44
563,07	2992,24
563,27	3067,81
563,47	3123,20
563,66	3252,79
563,86	3296,00
564,06	3409,40
564,25	3510,53
564,45	3612,21
564,65	3668,04
564,84	3732,97
565,04	3817,54
565,24	3908,63
565,43	3951,05
565,63	4092,69
565,83	4183,80
566,02	4227,39
566,22	4323,51
566,42	4423,17
566,61	4838,83
566,81	6326,82
567,01	9491,89
567,20	15087,84
567,40	23761,12
567,60	35368,63
567,79	48983,03
567,99	61012,64
568,19	64267,12
568,38	64269,70
568,58	64247,25
568,78	64265,04
568,97	55866,26
569,17	41627,42
569,37	29684,65
569,56	20694,24
569,76	15123,86
569,96	11751,28
570,15	9703,34
570,35	8581,19
570,55	7872,75
570,74	7385,24
570,94	7159,90
571,13	6981,21
571,33	6879,54
571,53	6894,50
571,72	6907,89
571,92	6968,67
572,12	7087,48
572,31	7154,96
572,51	7162,61
572,71	7190,39
572,90	7182,73
573,10	7164,25
573,29	7226,35
573,49	7307,66
573,69	7345,95
573,88	7461,77
574,08	7606,96
574,28	7690,25
574,47	7854,83
574,67	7927,94
574,86	8072,16
575,06	8193,59
575,26	8217,07
575,45	8269,10
575,65	8391,33
575,84	8528,10
576,04	8689,15
576,24	8889,95
576,43	9018,72
576,63	9259,32
576,82	9356,54
577,02	9577,04
577,22	9801,83
577,41	9984,49
577,61	10237,62
577,80	10416,98
578,00	10588,96
578,20	10818,74
578,39	11028,88
578,59	11275,14
578,78	11545,11
578,98	11859,94
579,17	12042,92
579,37	12436,24
579,57	12742,82
579,76	13096,32
579,96	13375,39
580,15	13723,34
580,35	14178,13
580,55	14476,08
580,74	14882,49
580,94	15349,34
581,13	15795,02
581,33	16346,22
581,52	16900,53
581,72	17573,10
581,91	18113,02
582,11	18925,15
582,31	19589,37
582,50	20915,57
582,70	22520,61
582,89	24309,15
583,09	26415,09
583,28	28439,07
583,48	30392,90
583,67	32464,86
583,87	34210,25
584,07	36209,90
584,26	37765,99
584,46	39245,08
584,65	39966,33
584,85	40851,38
585,04	40764,27
585,24	40757,71
585,43	40931,54
585,63	41323,69
585,82	41959,54
586,02	43228,04
586,21	44507,95
586,41	46489,13
586,61	50090,26
586,80	54912,50
587,00	64257,11
587,19	64262,30
587,39	64256,09
587,58	64273,26
587,78	64265,09
587,97	64272,43
588,17	64268,77
588,36	64272,46
588,56	64259,84
588,75	64258,93
588,95	64267,67
589,14	64281,45
589,34	64265,32
589,53	64270,00
589,73	64259,19
589,92	64279,08
590,12	64248,48
590,31	64270,69
590,51	64266,83
590,70	64271,59
590,90	64285,46
591,09	64282,23
591,29	64274,18
591,48	64278,19
591,68	64273,53
591,87	64276,63
592,07	64271,09
592,26	64286,54
592,46	64255,43
592,65	64273,92
592,85	64245,76
593,04	64288,65
593,24	64271,91
593,43	64263,94
593,63	64267,80
593,82	64290,07
594,01	64270,55
594,21	64282,78
594,40	64266,76
594,60	64273,70
594,79	64251,08
594,99	64278,38
595,18	64252,92
595,38	64261,24
595,57	64250,94
595,77	64270,62
595,96	64260,90
596,16	64289,16
596,35	64272,24
596,54	64264,01
596,74	64235,00
596,93	64260,16
597,13	64250,55
597,32	64276,78
597,52	64264,57
597,71	64285,31
597,91	64251,70
598,10	64257,67
598,29	64230,96
598,49	64274,49
598,68	64264,88
598,88	64267,07
599,07	64272,98
599,27	64285,82
599,46	64274,07
599,65	64275,89
599,85	64247,51
600,04	64287,16
600,24	64268,57
600,43	64255,79
600,63	64261,95
600,82	64284,53
601,01	64269,51
601,21	64263,02
601,40	64259,78
601,60	64270,47
601,79	64260,27
601,99	64283,41
602,18	64267,65
602,37	64265,13
602,57	64253,66
602,76	64289,14
602,96	64245,46
603,15	64277,80
603,34	64274,18
603,54	64287,77
603,73	64274,74
603,93	64267,95
604,12	64269,01
604,31	64274,00
604,51	64274,92
604,70	64256,34
604,90	64254,20
605,09	64272,62
605,28	64261,15
605,48	64268,24
605,67	64255,90
605,86	64250,84
606,06	64270,93
606,25	64273,59
606,45	64264,83
606,64	64275,12
606,83	64266,57
607,03	64260,08
607,22	64268,91
607,41	64261,13
607,61	64247,99
607,80	64274,87
608,00	64269,97
608,19	64249,73
608,38	64262,38
608,58	64290,81
608,77	64254,26
608,96	64275,85
609,16	64263,76
609,35	64293,68
609,54	64270,06
609,74	64261,67
609,93	64271,64
610,12	64276,03
610,32	64267,40
610,51	64289,35
610,71	64262,06
610,90	64279,86
611,09	64260,86
611,29	64275,92
611,48	64262,17
611,67	64279,61
611,87	64280,73
612,06	64265,20
612,25	64262,58
612,45	64277,33
612,64	64252,22
612,83	64272,27
613,03	64254,66
613,22	64268,46
613,41	64257,87
613,61	64247,17
613,80	64261,51
613,99	64285,90
614,18	64278,00
614,38	64270,95
614,57	64277,14
614,76	64262,12
614,96	64255,30
615,15	64283,88
615,34	64276,59
615,54	64289,06
615,73	64266,74
615,92	64280,48
616,12	64272,16
616,31	64271,78
616,50	64296,20
616,69	64252,33
616,89	64270,58
617,08	64286,59
617,27	64258,91
617,47	64262,60
617,66	64260,04
617,85	64252,09
618,05	64288,02
618,24	64254,97
618,43	64246,24
618,62	64258,44
618,82	64255,04
619,01	64276,65
619,20	64255,16
619,40	64285,30
619,59	64252,64
619,78	64276,02
619,97	64259,08
620,17	64253,66
620,36	64269,25
620,55	64267,07
620,74	64261,68
620,94	64208,09
621,13	58760,19
621,32	55300,92
621,51	36196,65
621,71	31512,79
621,90	19982,28
622,09	16331,61
622,29	5377,19
622,48	3536,26
622,67	2469,44
622,86	2442,90
623,06	2419,66
623,25	2376,94
623,44	2357,94
623,63	2355,46
623,83	2346,09
624,02	2333,38
624,21	2294,34
624,40	2305,08
624,59	2287,60
624,79	2293,03
624,98	2272,65
625,17	2295,74
625,36	2277,31
625,56	2288,15
625,75	2252,78
625,94	2255,65
626,13	2207,99
626,33	2180,09
626,52	2139,43
626,71	2127,37
626,90	2076,33
627,09	2068,64
627,29	2025,65
627,48	2031,49
627,67	1991,67
627,86	1968,33
628,05	1947,71
628,25	1943,14
628,44	1919,21
628,63	1922,82
628,82	1910,93
629,02	1915,97
629,21	1886,42
629,40	1877,51
629,59	1850,54
629,78	1825,67
629,98	1812,48
630,17	1808,88
630,36	1765,10
630,55	1762,14
630,74	1744,51
630,93	1756,59
631,13	1724,85
631,32	1700,13
631,51	1689,73
631,70	1674,86
631,89	1657,75
632,09	1608,85
632,28	1610,55
632,47	1636,61
632,66	1593,56
632,85	1591,27
633,04	1586,01
633,24	1557,89
633,43	1580,87
633,62	1553,87
633,81	1550,66
634,00	1535,00
634,19	1535,28
634,39	1503,00
634,58	1497,63
634,77	1471,97
634,96	1443,75
635,15	1442,15
635,34	1431,99
635,54	1419,42
635,73	1393,74
635,92	1399,09
636,11	1388,81
636,30	1393,96
636,49	1374,75
636,68	1367,32
636,88	1361,17
637,07	1348,62
637,26	1332,00
637,45	1327,19
637,64	1327,32
637,83	1338,87
638,02	1328,66
638,21	1337,42
638,41	1330,39
638,60	1300,55
638,79	1299,15
638,98	1296,54
639,17	1259,14
639,36	1251,75
639,55	1239,48
639,74	1227,35
639,94	1222,28
640,13	1215,08
640,32	1219,99
640,51	1227,46
640,70	1250,27
640,89	1273,32
641,08	1278,39
641,27	1301,01
641,46	1282,49
641,66	1273,65
641,85	1236,83
642,04	1196,82
642,23	1172,32
642,42	1159,28
642,61	1141,08
642,80	1115,91
642,99	1110,27
643,18	1103,27
643,37	1096,92
643,56	1099,79
643,76	1096,59
643,95	1087,69
644,14	1085,31
644,33	1098,15
644,52	1097,13
644,71	1081,00
644,90	1086,65
645,09	1071,86
645,28	1044,39
645,47	1060,36
645,66	1040,45
645,85	1049,49
646,04	1024,55
646,24	1022,42
646,43	1001,88
646,62	1010,07
646,81	1001,80
647,00	1007,77
647,19	1003,43
647,38	989,97
647,57	1001,68
647,76	987,74
647,95	971,02
648,14	973,40
648,33	959,11
648,52	941,48
648,71	949,88
648,90	941,62
649,09	946,21
649,28	929,84
649,47	942,44
649,66	932,19
649,85	936,58
650,05	926,78
650,24	916,77
650,43	914,23
650,62	902,74
650,81	912,42
651,00	893,56
651,19	894,08
651,38	878,59
651,57	869,58
651,76	863,30
651,95	859,19
652,14	847,95
652,33	843,72
652,52	832,40
652,71	840,44
652,90	832,20
653,09	844,38
653,28	839,48
653,47	835,32
653,66	830,58
653,85	829,08
654,04	816,24
654,23	805,28
654,42	809,63
654,61	785,60
654,80	778,43
654,99	786,78
655,18	783,43
655,37	788,47
655,56	795,71
655,75	808,00
655,94	805,99
656,13	799,78
656,32	801,65
656,51	770,51
656,70	776,29
656,89	762,54
657,08	748,47
657,27	735,52
657,46	745,60
657,65	730,31
657,84	744,18
658,03	733,55
658,22	724,71
658,40	721,91
658,59	715,84
658,78	708,77
658,97	714,84
659,16	702,48
659,35	675,92
659,54	687,03
659,73	689,36
659,92	680,29
660,11	679,74
660,30	686,68
660,49	678,37
660,68	674,52
660,87	673,99
661,06	675,69
661,25	668,44
661,44	674,82
661,63	668,16
661,82	654,56
662,01	647,76
662,19	645,63
662,38	643,33
662,57	635,45
662,76	640,34
662,95	637,03
663,14	626,90
663,33	627,20
663,52	619,57
663,71	614,67
663,90	616,22
664,09	614,08
664,28	606,09
664,47	600,21
664,65	590,87
664,84	597,96
665,03	590,90
665,22	594,46
665,41	582,85
665,60	585,62
665,79	590,79
665,98	588,08
666,17	597,30
666,36	608,48
666,55	626,63
666,73	635,09
666,92	658,17
667,11	694,07
667,30	707,79
667,49	711,54
667,68	704,31
667,87	681,60
668,06	657,52
668,25	636,84
668,43	599,36
668,62	568,96
668,81	554,24
669,00	543,91
669,19	535,26
669,38	526,41
669,57	525,59
669,76	508,29
669,94	501,04
670,13	500,82
670,32	499,58
670,51	488,85
670,70	487,27
670,89	494,71
671,08	494,40
671,26	481,15
671,45	480,53
671,64	473,05
671,83	472,95
672,02	471,66
672,21	468,42
672,40	467,27
672,58	453,67
672,77	461,00
672,96	457,75
673,15	453,56
673,34	445,09
673,53	447,70
673,71	448,49
673,90	453,55
674,09	488,44
674,28	515,99
674,47	566,00
674,66	610,36
674,84	650,32
675,03	677,42
675,22	668,84
675,41	656,66
675,60	603,38
675,79	550,70
675,97	521,37
676,16	491,70
676,35	474,51
676,54	448,90
676,73	437,19
676,91	422,15
677,10	414,10
677,29	397,78
677,48	396,47
677,67	394,44
677,86	390,12
678,04	380,61
678,23	379,63
678,42	381,98
678,61	379,91
678,80	372,65
678,98	368,34
679,17	358,74
679,36	354,96
679,55	346,63
679,73	342,64
679,92	341,93
680,11	347,68
680,30	347,38
680,49	332,70
680,67	339,19
680,86	332,13
681,05	332,26
681,24	345,13
681,42	335,22
681,61	334,04
681,80	330,62
681,99	337,47
682,18	328,05
682,36	326,86
682,55	333,43
682,74	329,05
682,93	329,91
683,11	319,51
683,30	320,16
683,49	317,64
683,68	317,29
683,86	320,63
684,05	312,20
684,24	306,94
684,43	308,74
684,61	304,04
684,80	305,29
684,99	307,79
685,18	305,18
685,36	302,06
685,55	300,36
685,74	299,37
685,93	329,33
686,11	350,80
686,30	383,77
686,49	431,38
686,67	466,42
686,86	492,91
687,05	496,82
687,24	475,16
687,42	442,49
687,61	402,71
687,80	366,55
687,99	350,41
688,17	337,11
688,36	324,41
688,55	320,60
688,73	303,95
688,92	301,62
689,11	294,26
689,29	297,73
689,48	292,42
689,67	288,26
689,86	284,21
690,04	266,96
690,23	269,32
690,42	267,92
690,60	263,65
690,79	268,50
690,98	261,46
691,16	262,09
691,35	255,65
691,54	257,16
691,72	257,92
691,91	265,62
692,10	268,30
692,29	279,17
692,47	280,29
692,66	311,67
692,85	311,45
693,03	348,11
693,22	361,55
693,41	381,16
693,59	374,97
693,78	376,29
693,97	361,26
694,15	354,33
694,34	329,25
694,53	338,70
694,71	337,62
694,90	425,41
695,09	836,94
695,27	2055,34
695,46	4109,25
695,64	6990,57
695,83	10289,97
696,02	13678,12
696,20	16039,96
696,39	16744,89
696,58	15997,82
696,76	13839,56
696,95	10921,19
697,14	8020,02
697,32	5786,98
697,51	4006,39
697,70	2889,20
697,88	2061,17
698,07	1543,05
698,25	1172,05
698,44	927,30
698,63	731,83
698,81	602,92
699,00	496,84
699,19	439,38
699,37	368,67
699,56	334,43
699,74	302,03
699,93	285,53
700,12	266,87
700,30	268,88
700,49	252,07
700,67	245,08
700,86	237,34
701,05	252,25
701,23	228,60
701,42	234,32
701,60	242,50
701,79	260,63
701,98	289,60
702,16	321,22
702,35	352,75
702,53	395,94
702,72	413,11
702,91	424,73
703,09	406,47
703,28	388,17
703,46	351,15
703,65	318,84
703,83	279,64
704,02	280,90
704,21	249,84
704,39	254,91
704,58	249,80
704,76	239,85
704,95	254,55
705,13	343,41
705,32	694,56
705,51	1547,97
705,69	2971,45
705,88	4642,84
706,06	6776,10
706,25	8652,95
706,43	9855,16
706,62	9969,37
706,80	9286,67
706,99	7909,73
707,18	6118,64
707,36	4513,46
707,55	3261,94
707,73	2337,84
707,92	1672,94
708,10	1237,08
708,29	922,66
708,47	733,83
708,66	582,40
708,84	478,17
709,03	394,91
709,21	340,61
709,40	306,83
709,59	269,45
709,77	260,33
709,96	248,62
710,14	248,29
710,33	255,82
710,51	234,68
710,70	239,77
710,88	239,66
711,07	226,46
711,25	216,94
711,44	211,07
711,62	210,80
711,81	206,04
711,99	204,06
712,18	204,28
712,36	207,38
712,55	209,16
712,73	199,79
712,92	208,23
713,10	205,33
713,29	243,50
713,47	327,03
713,66	467,16
713,84	660,22
714,03	858,65
714,21	1051,08
714,40	1165,63
714,58	1180,24
714,77	1121,28
714,95	989,36
715,14	801,01
715,32	639,11
715,51	521,43
715,69	418,01
715,87	347,45
716,06	301,63
716,24	271,97
716,43	242,92
716,61	223,97
716,80	207,92
716,98	201,16
717,17	190,92
717,35	192,82
717,54	178,16
717,72	176,36
717,91	180,14
718,09	178,55
718,27	171,10
718,46	180,38
718,64	173,42
718,83	172,39
719,01	165,59
719,20	169,68
719,38	177,84
719,57	182,11
719,75	186,52
719,93	195,30
720,12	208,88
720,30	211,52
720,49	219,78
720,67	227,48
720,86	213,29
721,04	197,36
721,22	183,83
721,41	194,98
721,59	181,26
721,78	175,15
721,96	181,01
722,14	178,98
722,33	174,17
722,51	168,41
722,70	166,78
722,88	179,53
723,06	169,81
723,25	169,70
723,43	162,01
723,62	168,85
723,80	172,60
723,98	166,28
724,17	160,25
724,35	171,46
724,54	161,81
724,72	164,81
724,90	159,80
725,09	166,97
725,27	166,97
725,46	180,06
725,64	195,31
725,82	267,40
726,01	510,29
726,19	937,09
726,38	1519,28
726,56	2172,20
726,74	2860,33
726,93	3279,74
727,11	3497,02
727,29	3342,43
727,48	2971,81
727,66	2422,05
727,84	1877,39
728,03	1413,32
728,21	1025,75
728,40	784,01
728,58	561,62
728,76	465,69
728,95	366,67
729,13	307,98
729,31	267,17
729,50	243,68
729,68	221,10
729,86	207,24
730,05	203,49
730,23	208,34
730,41	197,57
730,60	210,33
730,78	223,42
730,96	220,46
731,15	228,36
731,33	221,39
731,51	210,07
731,70	213,90
731,88	193,96
732,06	184,14
732,25	183,40
732,43	179,48
732,61	168,61
732,80	178,00
732,98	165,73
733,16	167,22
733,34	166,26
733,53	170,55
733,71	172,52
733,89	185,17
734,08	185,33
734,26	205,98
734,44	219,97
734,63	247,87
734,81	265,18
734,99	278,81
735,18	272,57
735,36	270,77
735,54	250,14
735,72	247,14
735,91	245,80
736,09	258,67
736,27	298,70
736,46	343,46
736,64	415,08
736,82	591,44
737,00	1197,45
737,19	2699,44
737,37	5134,79
737,55	8180,44
737,73	11556,55
737,92	14665,96
738,10	16376,17
738,28	16405,92
738,47	15128,58
738,65	12785,26
738,83	9857,17
739,01	7301,18
739,20	5195,38
739,38	3687,49
739,56	2576,42
739,74	1840,07
739,93	1310,67
740,11	1004,34
740,29	765,53
740,47	626,06
740,66	508,95
740,84	432,91
741,02	367,63
741,20	334,83
741,38	297,98
741,57	277,72
741,75	251,49
741,93	235,22
742,11	226,93
742,30	235,93
742,48	234,41
742,66	228,62
742,84	244,24
743,03	253,93
743,21	256,94
743,39	251,41
743,57	239,38
743,75	243,80
743,94	221,89
744,12	212,17
744,30	207,02
744,48	191,74
744,66	188,18
744,85	183,69
745,03	181,26
745,21	183,86
745,39	178,61
745,57	175,48
745,76	178,83
745,94	186,24
746,12	198,18
746,30	200,86
746,48	205,43
746,67	216,28
746,85	226,17
747,03	223,67
747,21	236,21
747,39	225,65
747,57	232,22
747,76	228,03
747,94	238,32
748,12	252,96
748,30	241,52
748,48	261,70
748,67	294,26
748,85	467,63
749,03	1143,73
749,21	2624,03
749,39	4784,87
749,57	7500,40
749,75	10581,15
749,94	13011,34
750,12	14817,87
750,30	16182,09
750,48	17163,74
750,66	17912,31
750,84	18445,94
751,03	18693,92
751,21	18197,23
751,39	16589,68
751,57	14137,18
751,75	11296,71
751,93	8577,81
752,11	6330,38
752,29	4568,48
752,48	3274,25
752,66	2343,71
752,84	1732,93
753,02	1281,37
753,20	1021,01
753,38	802,30
753,56	669,10
753,74	559,58
753,93	488,27
754,11	402,93
754,29	364,87
754,47	321,01
754,65	303,81
754,83	275,94
755,01	264,33
755,19	240,78
755,37	242,05
755,56	225,39
755,74	219,12
755,92	221,05
756,10	227,40
756,28	217,02
756,46	209,03
756,64	206,15
756,82	222,16
757,00	214,60
757,18	222,87
757,36	211,22
757,55	217,04
757,73	222,80
757,91	226,03
758,09	218,50
758,27	215,18
758,45	203,39
758,63	209,03
758,81	219,37
758,99	221,78
759,17	226,52
759,35	245,58
759,53	257,97
759,71	278,43
759,89	292,62
760,08	315,37
760,26	327,16
760,44	320,63
760,62	323,97
760,80	317,18
760,98	329,22
761,16	329,16
761,34	347,95
761,52	415,71
761,70	535,64
761,88	1040,16
762,06	3156,11
762,24	9519,62
762,42	20985,19
762,60	36414,66
762,78	53387,69
762,96	63767,41
763,14	64261,40
763,32	64266,90
763,50	64242,54
763,68	63448,01
763,86	55857,67
764,04	41431,56
764,22	26314,15
764,40	18075,17
764,58	12038,26
764,76	8390,54
764,94	5932,60
765,12	4678,14
765,30	4251,06
765,48	4660,14
765,66	5422,01
765,84	6421,01
766,02	7179,61
766,20	7490,00
766,38	7051,16
766,56	6328,79
766,74	5199,73
766,92	4027,00
767,10	2999,46
767,28	2204,42
767,46	1559,24
767,64	1157,94
767,82	854,89
768,00	685,88
768,18	564,37
768,36	558,59
768,54	675,69
768,72	1051,43
768,90	1573,34
769,08	2224,24
769,26	2846,50
769,44	3359,52
769,62	3519,95
769,80	3412,45
769,98	3060,26
770,16	2562,37
770,34	2009,03
770,52	1580,98
770,70	1273,32
770,88	1416,83
771,06	2601,03
771,24	5420,83
771,42	9515,71
771,60	14428,35
771,78	19535,73
771,96	23221,07
772,13	24391,31
772,31	23532,78
772,49	20578,49
772,67	16475,99
772,85	12335,18
773,03	8896,00
773,21	6316,83
773,39	4458,08
773,57	3098,36
773,75	2258,14
773,93	1630,26
774,11	1245,94
774,29	952,76
774,47	782,95
774,64	639,22
774,82	557,74
775,00	467,74
775,18	415,99
775,36	356,32
775,54	325,89
775,72	281,94
775,90	262,52
776,08	236,16
776,26	221,48
776,43	200,24
776,61	194,71
776,79	184,74
776,97	184,76
777,15	173,57
777,33	170,14
777,51	174,33
777,69	167,13
777,87	165,05
778,04	171,01
778,22	162,92
778,40	160,53
778,58	159,19
778,76	160,97
778,94	158,02
779,12	161,49
779,30	158,59
779,47	162,23
779,65	155,80
779,83	156,37
780,01	156,73
780,19	161,11
780,37	158,81
780,55	153,96
780,73	148,89
780,90	151,44
781,08	151,50
781,26	149,31
781,44	146,41
781,62	144,85
781,80	149,34
781,97	144,40
782,15	140,84
782,33	150,87
782,51	145,99
782,69	152,18
782,87	138,66
783,04	150,51
783,22	134,02
783,40	141,40
783,58	138,35
783,76	142,92
783,94	141,56
784,11	146,89
784,29	140,00
784,47	140,21
784,65	146,60
784,83	136,35
785,01	144,37
785,18	142,98
785,36	145,22
785,54	147,00
785,72	154,34
785,90	147,22
786,07	148,60
786,25	146,18
786,43	151,79
786,61	148,92
786,79	151,05
786,96	144,33
787,14	143,36
787,32	147,83
787,50	143,44
787,67	150,10
787,85	148,98
788,03	158,06
788,21	166,42
788,39	164,06
788,56	174,16
788,74	174,72
788,92	179,48
789,10	173,23
789,27	178,87
789,45	156,70
789,63	161,54
789,81	151,05
789,99	157,28
790,16	147,60
790,34	155,02
790,52	154,28
790,70	159,13
790,87	158,51
791,05	162,55
791,23	167,04
791,41	170,17
791,58	171,95
791,76	183,50
791,94	174,52
792,12	183,88
792,29	192,27
792,47	198,94
792,65	209,11
792,82	236,52
793,00	263,59
793,18	375,17
793,36	795,04
793,53	1831,09
793,71	3460,70
793,89	5650,49
794,07	8222,25
794,24	10291,44
794,42	11346,50
794,60	11220,73
794,77	10249,74
794,95	8677,07
795,13	6726,54
795,31	4997,67
795,48	3798,02
795,66	2778,34
795,84	2038,17
796,01	1508,12
796,19	1158,44
796,37	883,71
796,54	724,29
796,72	595,09
796,90	529,16
797,08	463,50
797,25	433,78
797,43	387,49
797,61	355,13
797,78	324,81
797,96	311,72
798,14	304,17
798,31	299,43
798,49	290,26
798,67	302,77
798,84	325,82
799,02	407,15
799,20	684,42
799,37	1312,72
799,55	2250,28
799,73	3372,31
799,90	4699,10
800,08	6120,84
800,26	7626,78
800,43	9307,42
800,61	10662,88
800,79	11906,72
800,96	12362,78
801,14	12211,20
801,32	11203,57
801,49	9765,64
801,67	7725,60
801,84	5974,89
802,02	4481,79
802,20	3429,12
802,37	2555,64
802,55	1969,03
802,73	1503,38
802,90	1214,00
803,08	964,97
803,26	811,67
803,43	687,19
803,61	609,87
803,78	532,16
803,96	488,54
804,14	440,90
804,31	409,88
804,49	369,58
804,67	351,79
804,84	335,32
805,02	330,79
805,19	301,37
805,37	302,50
805,55	287,20
805,72	285,33
805,90	280,76
806,07	286,46
806,25	271,99
806,43	284,05
806,60	291,49
806,78	289,74
806,95	304,28
807,13	312,14
807,30	309,23
807,48	334,56
807,66	351,34
807,83	377,36
808,01	408,03
808,18	434,37
808,36	467,57
808,54	519,07
808,71	693,08
808,89	1123,58
809,06	2114,32
809,24	3744,87
809,41	5938,21
809,59	8425,56
809,76	10657,63
809,94	12612,15
810,12	14644,98
810,29	18092,40
810,47	22653,15
810,64	28649,48
810,82	34192,90
810,99	38783,41
811,17	40170,91
811,34	38795,10
811,52	34383,69
811,69	28633,00
811,87	22035,69
812,05	16731,94
812,22	12688,47
812,40	9579,17
812,57	7098,17
812,75	5472,16
812,92	4221,13
813,10	3380,50
813,27	2674,99
813,45	2218,49
813,62	1864,79
813,80	1643,23
813,97	1432,02
814,15	1289,21
814,32	1174,18
814,50	1081,93
814,67	993,50
814,85	980,99
815,02	940,57
815,20	944,27
815,37	936,41
815,55	986,92
815,72	1038,87
815,90	1152,69
816,07	1325,15
816,25	1537,25
816,42	1837,06
816,60	2523,87
816,77	4288,49
816,95	8524,95
817,12	16390,74
817,30	28861,03
817,47	43462,20
817,65	57755,81
817,82	64280,08
818,00	64266,58
818,17	64293,36
818,35	64240,23
818,52	64250,67
818,70	64232,70
818,87	64258,14
819,04	64257,43
819,22	64270,88
819,39	64259,68
819,57	64253,40
819,74	64274,00
819,92	64267,53
820,09	64262,46
820,27	64271,81
820,44	64253,32
820,62	64285,28
820,79	64242,56
820,96	64279,30
821,14	48653,15
821,31	10366,79
821,49	6565,19
821,66	5261,03
821,84	4419,66
822,01	3667,38
822,18	3124,03
822,36	2560,80
822,53	2141,84
822,71	1728,30
822,88	1444,26
823,06	1173,20
823,23	1003,52
823,40	824,48
823,58	713,89
823,75	616,08
823,93	543,28
824,10	492,87
824,27	485,37
824,45	465,17
824,62	489,21
824,80	550,42
824,97	710,69
825,14	1060,38
825,32	1663,45
825,49	2554,29
825,67	3511,23
825,84	4407,84
826,01	5043,26
826,19	5212,68
826,36	5068,05
826,54	4628,30
826,71	3967,12
826,88	3184,58
827,06	2503,55
827,23	1931,31
827,40	1558,52
827,58	1206,55
827,75	991,42
827,93	768,98
828,10	657,54
828,27	548,46
828,45	480,33
828,62	413,58
828,79	387,16
828,97	327,75
829,14	317,64
829,31	280,05
829,49	270,24
829,66	241,00
829,83	236,34
830,01	204,84
830,18	211,76
830,35	186,51
830,53	184,13
830,70	172,63
830,87	171,49
831,05	163,36
831,22	150,76
831,39	146,98
831,57	136,39
831,74	148,86
831,91	150,56
832,09	139,77
832,26	143,34
832,43	136,71
832,61	143,20
832,78	142,02
832,95	140,51
833,13	133,37
833,30	127,54
833,47	131,51
833,65	126,03
833,82	129,40
833,99	128,01
834,16	125,23
834,34	136,44
834,51	132,69
834,68	132,87
834,86	126,33
835,03	131,02
835,20	127,78
835,38	131,56
835,55	121,51
835,72	132,24
835,89	134,30
836,07	122,00
836,24	124,69
836,41	131,27
836,58	127,89
836,76	130,83
836,93	132,09
837,10	132,60
837,28	130,00
837,45	138,87
837,62	143,00
837,79	145,75
837,97	151,46
838,14	161,16
838,31	168,91
838,48	192,60
838,66	212,26
838,83	255,63
839,00	298,67
839,17	372,71
839,35	516,94
839,52	783,35
839,69	1236,52
839,86	1937,60
840,04	2837,68
840,21	3761,98
840,38	4635,18
840,55	5184,10
840,72	5432,69
840,90	5413,46
841,07	5156,91
841,24	4929,85
841,41	4809,69
841,59	5084,16
841,76	5659,03
841,93	6426,26
842,10	7015,60
842,27	7240,33
842,45	7107,08
842,62	6719,09
842,79	5967,91
842,96	5017,92
843,13	3944,31
843,31	3083,31
843,48	2399,90
843,65	1950,26
843,82	1526,41
843,99	1243,70
844,17	981,09
844,34	801,35
844,51	638,76
844,68	539,70
844,85	457,77
845,02	406,52
845,20	351,64
845,37	332,45
845,54	275,07
845,71	255,10
845,88	215,75
846,06	194,04
846,23	160,20
846,40	158,50
846,57	133,18
846,74	135,53
846,91	110,80
847,09	114,37
847,26	93,84
847,43	101,55
847,60	92,60
847,77	86,55
847,94	90,35
848,11	93,61
848,29	85,98
848,46	92,65
848,63	88,06
848,80	84,97
848,97	88,41
849,14	95,88
849,31	87,76
849,49	86,83
849,66	87,81
849,83	102,45
850,00	92,87
850,17	109,57
850,34	127,45
850,51	145,80
850,68	171,35
850,85	234,54
851,03	316,40
851,20	460,27
851,37	646,07
851,54	881,11
851,71	1109,16
851,88	1318,67
852,05	1453,87
852,22	1514,09
852,39	1497,00
852,57	1396,94
852,74	1201,75
852,91	986,24
853,08	750,19
853,25	595,61
853,42	475,60
853,59	393,93
853,76	315,20
853,93	264,22
854,10	216,30
854,27	191,25
854,44	165,10
854,62	151,28
854,79	135,39
854,96	122,83
855,13	117,87
855,30	114,40
855,47	89,54
855,64	93,61
855,81	92,00
855,98	82,36
856,15	78,00
856,32	70,32
856,49	64,12
856,66	71,79
856,83	56,21
857,00	54,67
857,17	55,94
857,34	53,25
857,51	54,43
857,69	70,88
857,86	57,83
858,03	54,03
858,20	48,27
858,37	61,86
858,54	54,81
858,71	55,48
858,88	53,40
859,05	53,25
859,22	58,95
859,39	50,58
859,56	49,62
859,73	48,84
859,90	48,58
860,07	52,93
860,24	56,29
860,41	55,70
860,58	53,31
860,75	58,43
860,92	55,88
861,09	55,48
861,26	58,49
861,43	54,89
861,60	50,99
861,77	52,68
861,94	55,04
862,11	53,83
862,28	50,40
862,45	64,92
862,62	47,42
862,79	48,87
862,96	44,71
863,13	48,28
863,30	46,03
863,47	50,68
863,64	56,38
863,81	58,12
863,98	43,01
864,15	52,41
864,32	46,79
864,48	55,36
864,65	50,00
864,82	53,07
864,99	48,88
865,16	51,31
865,33	57,44
865,50	53,34
865,67	65,17
865,84	79,32
866,01	84,06
866,18	96,73
866,35	119,02
866,52	148,29
866,69	171,13
866,86	195,20
867,03	225,59
867,20	231,18
867,37	220,52
867,53	218,22
867,70	183,80
867,87	157,00
868,04	127,40
868,21	111,99
868,38	92,91
868,55	83,02
868,72	77,65
868,89	73,49
869,06	60,48
869,23	62,54
869,40	58,27
869,56	51,56
869,73	49,42
869,90	44,03
870,07	47,61
870,24	42,05
870,41	46,00
870,58	47,29
870,75	43,31
870,92	37,24
871,08	40,50
871,25	41,24
871,42	47,64
871,59	44,03
871,76	43,57
871,93	46,32
872,10	43,29
872,27	35,46
872,43	44,33
872,60	36,56
872,77	43,15
872,94	42,72
873,11	40,41
873,28	38,09
873,45	45,94
873,62	40,05
873,78	43,42
873,95	47,15
874,12	43,65
874,29	44,79
874,46	33,59
874,63	39,76
874,79	44,11
874,96	40,83
875,13	40,03
875,30	43,70
875,47	33,00
875,64	41,31
875,80	39,83
875,97	41,37
876,14	41,12
876,31	44,19
876,48	38,34
876,65	47,62
876,81	43,45
876,98	37,90
877,15	35,81
877,32	33,15
877,49	39,21
877,65	37,49
877,82	39,27
877,99	40,28
878,16	44,63
878,33	34,42
878,49	39,48
878,66	40,83
878,83	39,37
879,00	31,84
879,17	34,72
879,33	38,11
879,50	39,78
879,67	42,88
879,84	39,87
880,01	37,18
880,17	42,01
880,34	38,64
880,51	42,72
880,68	38,77
880,84	42,98
881,01	27,81
881,18	39,07
881,35	37,51
881,52	36,11
881,68	36,94
881,85	32,45
882,02	40,27
882,19	34,12
882,35	30,33
882,52	36,34
882,69	40,96
882,86	34,00
883,02	38,60
883,19	35,65
883,36	43,62
883,53	36,69
883,69	40,09
883,86	36,33
884,03	32,34
884,19	30,14
884,36	36,82
884,53	42,46
884,70	32,53
884,86	48,44
885,03	29,92
885,20	44,63
885,37	33,44
885,53	40,66
885,70	37,89
885,87	29,96
886,03	31,96
886,20	35,37
886,37	38,42
886,54	35,51
886,70	49,17
886,87	34,64
887,04	33,90
887,20	37,86
887,37	29,77
887,54	30,09
887,70	31,51
887,87	34,58
888,04	37,64
888,20	34,08
888,37	41,81
888,54	33,46
888,71	35,54
888,87	34,61
889,04	29,99
889,21	32,25
889,37	34,08
889,54	32,25
889,71	33,37
889,87	27,87
890,04	38,96
890,21	38,96
890,37	38,96
890,54	38,96
890,71	38,96
890,87	38,96
